#.t	.Aer_Anox_ZP.C(S_A)	.Aer_Anox_ZP.C(S_F)	.Aer_Anox_ZP.C(S_I)	.Aer_Anox_ZP.C(S_N2O)	.Aer_Anox_ZP.C(S_NH)	.Aer_Anox_ZP.C(S_NO)	.Aer_Anox_ZP.C(S_NO2)	.Aer_Anox_ZP.C(S_NO3)	.Aer_Anox_ZP.C(S_O)	.Aer_Anox_ZP.C(X_BA1)	.Aer_Anox_ZP.C(X_BA2)	.Aer_Anox_ZP.C(X_H)	.Aer_Anox_ZP.C(X_TSS)	.Aer_Anox_ZP.FluxN2O_gas
#d	g/m3	g/m3	g/m3	g/m3	g/m3	g/m3	g/m3	g/m3	g/m3	g/m3	g/m3	g/m3	g/m3	g/d
       0	0.449869	 4.21568	  42.742	0.0460128	  2.3963	0.0565285	0.492947	0.0173533	 1.80465	 98.8969	 4.30192	 376.727	 3082.91	 92803.7
0.00347222	0.508472	 4.14322	  42.742	0.0616203	 2.46658	0.0276279	0.531645	0.0303909	 2.06721	 98.8891	 4.30274	 376.526	 3082.98	  124281
0.00694444	0.559876	 4.14468	  42.742	0.0523328	 2.51056	0.0254506	0.627264	0.0444744	 2.17963	 98.8866	 4.30383	 376.295	 3083.09	  105548
0.0104167	0.596855	 4.11886	  42.742	0.0499866	 2.54772	0.0273945	0.713468	0.0592958	 2.25888	 98.8849	 4.30518	 376.075	 3083.25	  100816
0.0138889	0.622314	 4.08371	  42.742	0.0513857	 2.58101	0.029739	0.796474	0.0738244	 2.31625	 98.8836	 4.30655	  375.86	 3083.42	  103637
0.0173611	0.639456	 4.04155	  42.742	0.0541015	 2.61285	0.0319575	0.875739	0.0880069	 2.36221	 98.8823	 4.30792	  375.65	  3083.6	  109113
0.0208333	0.650646	  3.9926	  42.742	0.0570855	 2.64382	0.0339679	 0.95077	0.101813	 2.40111	 98.8809	 4.30929	 375.444	 3083.78	  115131
0.0243056	0.657626	 3.93857	  42.742	0.0599687	 2.67429	0.0357822	 1.02186	0.115218	 2.43527	 98.8793	 4.31064	 375.241	 3083.96	  120945
0.0277778	0.661703	 3.88082	  42.742	0.0626255	 2.70444	0.0374232	 1.08934	0.128228	 2.46612	 98.8775	 4.31196	 375.042	 3084.15	  126303
 0.03125	0.663805	 3.82045	  42.742	0.0650261	 2.73438	0.0389127	 1.15354	0.140855	 2.49456	 98.8756	 4.31326	 374.845	 3084.33	  131144
0.0347222	0.664579	 3.75835	  42.742	0.0671756	 2.76416	0.0402695	 1.21476	0.153115	 2.52116	 98.8734	 4.31454	 374.649	 3084.51	  135478
0.0381944	0.664497	 3.69527	  42.742	0.0690954	  2.7938	0.0415116	  1.2733	0.165027	 2.54633	 98.8711	 4.31579	 374.456	 3084.69	  139349
0.0416667	0.663868	 3.63178	  42.742	0.0708081	 2.82332	0.0426531	 1.32941	0.176611	 2.57035	 98.8687	 4.31702	 374.263	 3084.87	  142803
0.0451389	0.662903	 3.56837	  42.742	0.0723336	 2.85272	0.0437052	  1.3833	0.187881	 2.59338	  98.866	 4.31823	 374.072	 3085.04	  145879
0.0486111	0.661744	 3.50541	  42.742	0.0736937	 2.88202	0.0446787	 1.43518	0.198858	 2.61557	 98.8633	 4.31941	 373.882	 3085.22	  148621
0.0520833	0.660481	 3.44319	  42.742	0.0749066	 2.91121	0.0455824	 1.48522	0.209556	 2.63701	 98.8604	 4.32058	 373.692	 3085.39	  151067
0.0555556	 0.65917	 3.38195	  42.742	0.0759884	  2.9403	0.0464236	 1.53356	0.219992	  2.6578	 98.8573	 4.32173	 373.502	 3085.55	  153248
0.0590278	0.657844	 3.32189	  42.742	0.0769531	 2.96929	0.0472087	 1.58033	0.230179	 2.67797	 98.8542	 4.32286	 373.313	 3085.72	  155192
  0.0625	0.656522	 3.26318	  42.742	0.0778124	 2.99818	0.0479428	 1.62564	0.240129	 2.69758	 98.8509	 4.32397	 373.124	 3085.88	  156925
0.0659722	0.655212	 3.20592	  42.742	0.0785779	 3.02696	0.048631	 1.66958	0.249854	 2.71666	 98.8475	 4.32507	 372.935	 3086.04	  158468
0.0694444	0.653918	 3.15021	  42.742	0.0792598	 3.05566	0.0492777	 1.71225	0.259367	 2.73525	 98.8441	 4.32615	 372.746	 3086.19	  159842
0.0729167	0.652639	 3.09612	  42.742	0.0798663	 3.08426	0.0498864	 1.75372	0.268676	 2.75337	 98.8405	 4.32722	 372.557	 3086.35	  161064
0.0763889	0.651374	 3.04373	  42.742	0.0804044	 3.11276	0.0504598	 1.79404	0.277789	 2.77104	 98.8368	 4.32828	 372.368	  3086.5	  162149
0.0798611	0.650121	 2.99305	  42.742	0.0808824	 3.14118	0.0510017	  1.8333	0.286718	 2.78828	 98.8331	 4.32932	 372.179	 3086.64	  163112
0.0833333	0.648879	 2.94417	  42.742	0.0813047	 3.16951	0.0515136	  1.8715	0.295465	 2.80511	 98.8292	 4.33035	 371.989	 3086.79	  163962
0.0868055	0.647646	 2.89704	  42.742	0.0816786	 3.19776	0.0519987	 1.90873	0.304042	 2.82154	 98.8253	 4.33137	   371.8	 3086.93	  164716
0.0902778	0.646421	 2.85173	  42.742	0.0820079	 3.22593	0.0524586	 1.94501	0.312453	 2.83758	 98.8213	 4.33239	  371.61	 3087.08	  165379
 0.09375	0.645204	  2.8082	  42.742	0.0822977	 3.25402	0.0528952	 1.98037	0.320702	 2.85325	 98.8173	 4.33339	 371.421	 3087.21	  165962
0.0972222	0.643996	 2.76646	  42.742	0.0825524	 3.28204	0.0533105	 2.01486	0.328798	 2.86856	 98.8132	 4.33438	 371.231	 3087.35	  166475
0.100694	0.642798	 2.72649	  42.742	0.0827754	 3.30998	0.0537059	 2.04851	0.336744	 2.88351	  98.809	 4.33537	 371.041	 3087.49	  166923
0.104167	 0.64161	  2.6883	  42.742	0.0829699	 3.33785	0.0540824	 2.08131	0.344543	  2.8981	 98.8047	 4.33635	 370.851	 3087.62	  167315
0.107639	0.640435	 2.65184	  42.742	0.0831395	 3.36565	0.0544418	 2.11332	0.352199	 2.91236	 98.8004	 4.33731	  370.66	 3087.75	  167656
0.111111	0.639273	 2.61709	  42.742	0.083287	 3.39338	0.0547852	 2.14455	0.359718	 2.92628	  98.796	 4.33828	  370.47	 3087.88	  167952
0.114583	0.638127	   2.584	  42.742	0.0834151	 3.42105	0.0551137	 2.17502	0.367103	 2.93987	 98.7915	 4.33923	 370.279	    3088	  168209
0.118056	0.636997	 2.55255	  42.742	0.0835262	 3.44865	0.0554282	 2.20476	0.374355	 2.95314	  98.787	 4.34018	 370.088	 3088.13	  168432
0.121528	0.635886	 2.52271	  42.742	0.0836221	 3.47618	0.0557296	 2.23376	0.381477	 2.96608	 98.7825	 4.34112	 369.898	 3088.25	  168624
   0.125	0.634795	 2.49444	  42.742	0.0837052	 3.50365	0.0560189	 2.26206	0.388473	 2.97871	 98.7779	 4.34206	 369.707	 3088.37	  168791
0.128472	0.633725	 2.46768	  42.742	0.0837771	 3.53106	0.0562967	 2.28967	0.395344	 2.99102	 98.7733	 4.34299	 369.516	 3088.49	  168935
0.131944	0.632676	 2.44238	  42.742	0.0838397	  3.5584	0.056564	 2.31661	0.402094	 3.00303	 98.7686	 4.34391	 369.325	 3088.61	  169060
0.135417	 0.63165	 2.41851	  42.742	0.0838942	 3.58568	0.0568214	 2.34288	0.408723	 3.01474	 98.7639	 4.34483	 369.134	 3088.72	  169169
0.138889	0.630648	 2.39601	  42.742	0.0839422	  3.6129	0.0570694	 2.36851	0.415235	 3.02615	 98.7591	 4.34575	 368.943	 3088.84	  169264
0.142361	0.629669	 2.37484	  42.742	0.0839847	 3.64006	0.0573087	  2.3935	 0.42163	 3.03726	 98.7543	 4.34666	 368.752	 3088.95	  169349
0.145833	0.628715	 2.35496	  42.742	0.0840229	 3.66715	0.0575397	 2.41787	 0.42791	 3.04808	 98.7494	 4.34756	 368.561	 3089.06	  169425
0.149306	0.627785	 2.33632	  42.742	0.0840576	 3.69418	0.057763	 2.44163	0.434077	 3.05861	 98.7446	 4.34846	  368.37	 3089.17	  169494
0.152778	0.626879	 2.31887	  42.742	0.0840899	 3.72115	0.057979	 2.46479	0.440133	 3.06886	 98.7396	 4.34936	  368.18	 3089.28	  169558
 0.15625	0.625997	 2.30254	  42.742	0.0841205	 3.74806	0.0581882	 2.48737	0.446079	 3.07883	 98.7347	 4.35025	 367.989	 3089.39	  169618
0.159722	0.625138	 2.28732	  42.742	0.0841499	  3.7749	0.058391	 2.50937	0.451915	 3.08853	 98.7297	 4.35114	 367.798	 3089.49	  169676
0.163194	0.624303	 2.27314	  42.742	0.0841789	 3.80168	0.0585877	 2.53082	0.457646	 3.09795	 98.7247	 4.35203	 367.608	  3089.6	  169734
0.166667	0.623491	 2.25997	  42.742	0.0842079	 3.82839	0.0587786	 2.55172	 0.46327	 3.10711	 98.7197	 4.35291	 367.417	  3089.7	  169791
0.170139	0.622702	 2.24775	  42.742	0.0842374	 3.85504	0.058964	 2.57207	0.468789	   3.116	 98.7146	 4.35379	 367.227	  3089.8	  169849
0.173611	0.621934	 2.23645	  42.742	0.0842677	 3.88163	0.0591444	 2.59191	0.474206	 3.12464	 98.7096	 4.35466	 367.037	 3089.91	  169909
0.177083	0.621187	 2.22604	  42.742	0.0842993	 3.90815	0.0593198	 2.61123	 0.47952	 3.13303	 98.7045	 4.35553	 366.847	 3090.01	  169972
0.180556	0.620461	 2.21646	  42.742	0.0843322	  3.9346	0.0594905	 2.63004	0.484734	 3.14116	 98.6993	  4.3564	 366.658	 3090.11	  170037
0.184028	0.619756	 2.20769	  42.742	0.0843669	 3.96098	0.0596568	 2.64836	0.489846	 3.14905	 98.6942	 4.35727	 366.468	  3090.2	  170106
  0.1875	0.619069	 2.19968	  42.742	0.0844034	 3.98729	0.0598188	  2.6662	0.494861	  3.1567	  98.689	 4.35813	 366.279	  3090.3	  170178
0.190972	  0.6184	 2.19239	  42.742	0.0844418	 4.01353	0.0599769	 2.68356	0.499779	 3.16412	 98.6839	 4.35899	 366.089	  3090.4	  170255
0.194444	 0.61775	 2.18581	  42.742	0.0844825	 4.03971	0.060131	 2.70046	  0.5046	  3.1713	 98.6787	 4.35985	 365.901	 3090.49	  170336
0.197917	0.617117	 2.17988	  42.742	0.0845253	 4.06581	0.0602815	 2.71691	0.509326	 3.17826	 98.6735	  4.3607	 365.712	 3090.59	  170421
0.201389	  0.6165	 2.17458	  42.742	0.0845704	 4.09184	0.0604284	 2.73292	0.513959	 3.18499	 98.6682	 4.36156	 365.523	 3090.68	  170510
0.204861	0.615899	 2.16989	  42.742	0.0846177	  4.1178	0.0605719	  2.7485	0.518499	 3.19151	  98.663	 4.36241	 365.335	 3090.78	  170605
0.208333	0.615313	 2.16576	  42.742	0.0846674	 4.14368	0.0607121	 2.76366	0.522948	 3.19782	 98.6578	 4.36326	 365.147	 3090.87	  170704
0.211806	0.614741	 2.16218	  42.742	0.0847194	 4.16949	0.0608492	  2.7784	0.527306	 3.20392	 98.6525	  4.3641	 364.959	 3090.96	  170808
0.215278	0.614184	 2.15912	  42.742	0.0847737	 4.19523	0.0609832	 2.79275	0.531576	 3.20982	 98.6472	 4.36495	 364.772	 3091.05	  170916
 0.21875	0.613639	 2.15655	  42.742	0.0848302	 4.22088	0.0611143	  2.8067	0.535757	 3.21552	 98.6419	 4.36579	 364.585	 3091.14	  171029
0.222222	0.613107	 2.15445	  42.742	0.084889	 4.24646	0.0612426	 2.82027	0.539852	 3.22102	 98.6366	 4.36663	 364.398	 3091.23	  171146
0.225694	0.612588	  2.1528	  42.742	0.0849499	 4.27197	0.061368	 2.83346	 0.54386	 3.22633	 98.6313	 4.36747	 364.211	 3091.32	  171268
0.229167	0.612079	 2.15157	  42.742	0.085013	 4.29739	0.0614909	 2.84629	0.547784	 3.23146	  98.626	  4.3683	 364.025	 3091.41	  171394
0.232639	0.611582	 2.15074	  42.742	0.0850781	 4.32274	0.0616112	 2.85876	0.551625	 3.23641	 98.6207	 4.36914	 363.838	  3091.5	  171525
0.236111	0.611095	 2.15031	  42.742	0.0851452	   4.348	0.0617289	 2.87088	0.555384	 3.24118	 98.6154	 4.36997	 363.653	 3091.59	  171659
0.239583	0.610618	 2.15023	  42.742	0.0852142	 4.37319	0.0618442	 2.88266	0.559061	 3.24578	 98.6101	  4.3708	 363.467	 3091.68	  171797
0.243056	0.610151	  2.1505	  42.742	0.0852851	 4.39829	0.0619572	 2.89411	0.562659	 3.25021	 98.6048	 4.37163	 363.282	 3091.76	  171939
0.246528	0.609692	 2.15111	  42.742	0.0853577	 4.42331	0.0620679	 2.90524	0.566178	 3.25448	 98.5994	 4.37246	 363.097	 3091.85	  172084
    0.25	0.609243	 2.15203	  42.742	0.085432	 4.44825	0.0621763	 2.91605	0.569619	 3.25858	 98.5941	 4.37328	 362.912	 3091.94	  172233
0.253472	0.608801	 2.15324	  42.742	0.0855079	  4.4731	0.0622825	 2.92656	0.572984	 3.26253	 98.5887	 4.37411	 362.728	 3092.02	  172385
0.256944	0.608367	 2.15475	  42.742	0.0855854	 4.49787	0.0623866	 2.93676	0.576273	 3.26633	 98.5834	 4.37493	 362.544	 3092.11	  172540
0.260417	0.607941	 2.15652	  42.742	0.0856643	 4.52256	0.0624887	 2.94667	0.579488	 3.26998	 98.5781	 4.37575	  362.36	 3092.19	  172698
0.263889	0.607521	 2.15855	  42.742	0.0857445	 4.54715	0.0625887	  2.9563	0.582629	 3.27348	 98.5727	 4.37657	 362.176	 3092.28	  172859
0.267361	0.607109	 2.16083	  42.742	0.0858261	 4.57167	0.0626867	 2.96564	0.585699	 3.27685	 98.5674	 4.37739	 361.993	 3092.36	  173022
0.270833	0.606703	 2.16334	  42.742	0.0859088	  4.5961	0.0627828	 2.97472	0.588698	 3.28007	  98.562	 4.37821	  361.81	 3092.44	  173188
0.274306	0.606303	 2.16607	  42.742	0.0859927	 4.62044	0.062877	 2.98353	0.591627	 3.28317	 98.5567	 4.37902	 361.628	 3092.53	  173356
0.277778	0.605908	 2.16901	  42.742	0.0860777	 4.64469	0.0629694	 2.99208	0.594487	 3.28613	 98.5513	 4.37984	 361.445	 3092.61	  173527
 0.28125	 0.60552	 2.17215	  42.742	0.0861637	 4.66885	0.0630599	 3.00038	 0.59728	 3.28896	  98.546	 4.38065	 361.263	 3092.69	  173699
0.284722	0.605136	 2.17549	  42.742	0.0862506	 4.69293	0.0631487	 3.00844	0.600006	 3.29167	 98.5406	 4.38146	 361.082	 3092.77	  173873
0.288194	0.604758	   2.179	  42.742	0.0863384	 4.71692	0.0632358	 3.01626	0.602667	 3.29426	 98.5353	 4.38227	   360.9	 3092.86	  174049
0.291667	0.604384	 2.18269	  42.742	0.0864269	 4.74081	0.0633211	 3.02384	0.605263	 3.29674	 98.5299	 4.38308	 360.719	 3092.94	  174227
0.295139	0.604015	 2.18655	  42.742	0.0865162	 4.76462	0.0634048	 3.03119	0.607796	  3.2991	 98.5246	 4.38389	 360.539	 3093.02	  174406
0.298611	 0.60365	 2.19055	  42.742	0.0866062	 4.78834	0.0634869	 3.03833	0.610267	 3.30135	 98.5193	  4.3847	 360.358	  3093.1	  174586
0.302083	0.603289	 2.19471	  42.742	0.0866967	 4.81197	0.0635674	 3.04525	0.612676	 3.30349	 98.5139	 4.38551	 360.178	 3093.18	  174768
0.305556	0.602932	 2.19901	  42.742	0.0867879	  4.8355	0.0636463	 3.05196	0.615025	 3.30552	 98.5086	 4.38631	 359.999	 3093.26	  174951
0.309028	0.602579	 2.20345	  42.742	0.0868795	 4.85895	0.0637237	 3.05846	0.617314	 3.30745	 98.5033	 4.38712	 359.819	 3093.34	  175134
  0.3125	 0.60223	 2.20802	  42.742	0.0869716	  4.8823	0.0637996	 3.06476	0.619546	 3.30929	 98.4979	 4.38792	  359.64	 3093.42	  175319
0.315972	0.601884	 2.21271	  42.742	0.0870641	 4.90557	0.0638741	 3.07087	 0.62172	 3.31103	 98.4926	 4.38872	 359.461	  3093.5	  175505
0.319444	0.601541	 2.21751	  42.742	0.087157	 4.92874	0.0639471	 3.07679	0.623838	 3.31267	 98.4873	 4.38953	 359.283	 3093.58	  175691
0.322917	0.601201	 2.22243	  42.742	0.0872501	 4.95182	0.0640187	 3.08252	0.625901	 3.31422	  98.482	 4.39033	 359.104	 3093.66	  175878
0.326389	0.600864	 2.22745	  42.742	0.0873435	  4.9748	0.0640889	 3.08807	 0.62791	 3.31569	 98.4767	 4.39113	 358.927	 3093.74	  176065
0.329861	 0.60053	 2.23257	  42.742	0.0874372	  4.9977	0.0641577	 3.09345	0.629865	 3.31706	 98.4714	 4.39193	 358.749	 3093.81	  176253
0.333333	0.600199	 2.23779	  42.742	0.087531	  5.0205	0.0642253	 3.09865	0.631768	 3.31836	 98.4661	 4.39273	 358.572	 3093.89	  176441
0.336806	 0.59987	  2.2431	  42.742	0.087625	 5.04321	0.0642915	 3.10369	 0.63362	 3.31957	 98.4608	 4.39352	 358.395	 3093.97	  176630
0.340278	0.599544	  2.2485	  42.742	0.0877191	 5.06582	0.0643564	 3.10857	0.635421	  3.3207	 98.4555	 4.39432	 358.218	 3094.05	  176819
 0.34375	 0.59922	 2.25398	  42.742	0.0878133	 5.08835	0.0644201	 3.11329	0.637173	 3.32176	 98.4502	 4.39512	 358.042	 3094.13	  177008
0.347222	0.598898	 2.25954	  42.742	0.0879075	 5.11078	0.0644826	 3.11785	0.638876	 3.32274	 98.4449	 4.39591	 357.866	  3094.2	  177197
0.350694	0.598578	 2.26518	  42.742	0.0880017	 5.13312	0.0645439	 3.12226	0.640532	 3.32365	 98.4396	 4.39671	  357.69	 3094.28	  177386
0.354167	0.598261	 2.27089	  42.742	0.088096	 5.15536	0.0646039	 3.12652	 0.64214	 3.32449	 98.4344	  4.3975	 357.515	 3094.36	  177575
0.357639	0.597945	 2.27667	  42.742	0.0881901	 5.17751	0.0646628	 3.13064	0.643703	 3.32526	 98.4291	 4.39829	  357.34	 3094.43	  177764
0.361111	0.597631	 2.28251	  42.742	0.0882843	 5.19957	0.0647206	 3.13462	 0.64522	 3.32596	 98.4239	 4.39908	 357.165	 3094.51	  177952
0.364583	0.597319	 2.28842	  42.742	0.0883783	 5.22153	0.0647773	 3.13847	0.646693	  3.3266	 98.4186	 4.39987	 356.991	 3094.59	  178141
0.368056	0.597009	 2.29438	  42.742	0.0884722	  5.2434	0.0648328	 3.14218	0.648123	 3.32718	 98.4134	 4.40067	 356.817	 3094.66	  178330
0.371528	  0.5967	 2.30041	  42.742	0.088566	 5.26518	0.0648873	 3.14576	0.649509	  3.3277	 98.4081	 4.40146	 356.643	 3094.74	  178518
   0.375	0.596393	 2.30649	  42.742	0.0886596	 5.28687	0.0649408	 3.14922	0.650855	 3.32816	 98.4029	 4.40224	 356.469	 3094.81	  178705
0.378472	0.596088	 2.31262	  42.742	0.088753	 5.30846	0.0649932	 3.15255	0.652159	 3.32856	 98.3977	 4.40303	 356.296	 3094.89	  178893
0.381944	0.595784	  2.3188	  42.742	0.0888462	 5.32996	0.0650446	 3.15577	0.653423	  3.3289	 98.3924	 4.40382	 356.123	 3094.96	  179080
0.385417	0.595481	 2.32503	  42.742	0.0889393	 5.35136	0.065095	 3.15886	0.654648	  3.3292	 98.3872	 4.40461	 355.951	 3095.04	  179267
0.388889	 0.59518	 2.33131	  42.742	0.0890321	 5.37267	0.0651444	 3.16185	0.655834	 3.32944	  98.382	  4.4054	 355.778	 3095.11	  179453
0.392361	 0.59488	 2.33762	  42.742	0.0891246	 5.39389	0.0651928	 3.16472	0.656982	 3.32963	 98.3768	 4.40618	 355.606	 3095.19	  179638
0.395833	0.594581	 2.34399	  42.742	0.0892169	 5.41502	0.0652403	 3.16748	0.658093	 3.32977	 98.3716	 4.40697	 355.435	 3095.26	  179824
0.399306	0.594283	 2.35039	  42.742	0.0893089	 5.43605	0.0652869	 3.17014	0.659167	 3.32986	 98.3665	 4.40775	 355.263	 3095.34	  180008
0.402778	0.593987	 2.35683	  42.742	0.0894006	 5.45699	0.0653326	 3.17269	0.660206	 3.32991	 98.3613	 4.40854	 355.092	 3095.41	  180192
 0.40625	0.593691	  2.3633	  42.742	0.0894921	 5.47784	0.0653774	 3.17515	 0.66121	 3.32991	 98.3561	 4.40932	 354.922	 3095.48	  180376
0.409722	0.593397	 2.36981	  42.742	0.0895832	  5.4986	0.0654213	  3.1775	 0.66218	 3.32987	 98.3509	  4.4101	 354.751	 3095.56	  180559
0.413194	0.593104	 2.37636	  42.742	0.089674	 5.51926	0.0654644	 3.17977	0.663116	 3.32979	 98.3458	 4.41088	 354.581	 3095.63	  180741
0.416667	0.592811	 2.38293	  42.742	0.0897645	 5.53983	0.0655066	 3.18193	0.664019	 3.32967	 98.3406	 4.41167	 354.411	  3095.7	  180922
0.420139	 0.59252	 2.38954	  42.742	0.0898546	 5.56031	0.065548	 3.18401	 0.66489	 3.32951	 98.3355	 4.41245	 354.242	 3095.78	  181103
0.423611	 0.59223	 2.39618	  42.742	0.0899444	  5.5807	0.0655886	   3.186	0.665729	 3.32931	 98.3304	 4.41323	 354.073	 3095.85	  181283
0.427083	 0.59194	 2.40285	  42.742	0.0900338	 5.60099	0.0656284	  3.1879	0.666537	 3.32907	 98.3253	 4.41401	 353.904	 3095.92	  181463
0.430556	0.591651	 2.40954	  42.742	0.0901229	  5.6212	0.0656674	 3.18971	0.667315	  3.3288	 98.3201	 4.41479	 353.735	    3096	  181641
0.434028	0.591364	 2.41626	  42.742	0.0902116	 5.64131	0.0657057	 3.19145	0.668064	 3.32849	  98.315	 4.41557	 353.567	 3096.07	  181819
  0.4375	0.591077	   2.423	  42.742	0.0902999	 5.66134	0.0657432	  3.1931	0.668783	 3.32815	 98.3099	 4.41635	 353.399	 3096.14	  181996
0.440972	 0.59079	 2.42977	  42.742	0.0903879	 5.68127	 0.06578	 3.19468	0.669474	 3.32778	 98.3048	 4.41712	 353.231	 3096.21	  182173
0.444444	0.590505	 2.43657	  42.742	0.0904754	 5.70111	0.065816	 3.19618	0.670137	 3.32737	 98.2998	  4.4179	 353.063	 3096.28	  182349
0.447917	 0.59022	 2.44338	  42.742	0.0905626	 5.72086	0.0658513	  3.1976	0.670772	 3.32694	 98.2947	 4.41868	 352.896	 3096.36	  182523
0.451389	0.589936	 2.45022	  42.742	0.0906494	 5.74052	0.065886	 3.19895	0.671382	 3.32647	 98.2896	 4.41946	  352.73	 3096.43	  182698
0.454861	0.589653	 2.45708	  42.742	0.0907358	 5.76009	0.0659199	 3.20024	0.671964	 3.32598	 98.2846	 4.42023	 352.563	  3096.5	  182871
0.458333	 0.58937	 2.46395	  42.742	0.0908217	 5.77957	0.0659532	 3.20145	0.672522	 3.32546	 98.2795	 4.42101	 352.397	 3096.57	  183043
0.461806	0.589088	 2.47085	  42.742	0.0909073	 5.79896	0.0659858	 3.20259	0.673054	 3.32491	 98.2745	 4.42178	 352.231	 3096.64	  183215
0.465278	0.588807	 2.47776	  42.742	0.0909925	 5.81826	0.0660178	 3.20367	0.673562	 3.32434	 98.2694	 4.42256	 352.065	 3096.71	  183386
 0.46875	0.588526	  2.4847	  42.742	0.0910772	 5.83747	0.0660491	 3.20468	0.674045	 3.32374	 98.2644	 4.42333	   351.9	 3096.78	  183556
0.472222	0.588246	 2.49165	  42.742	0.0911616	 5.85659	0.0660798	 3.20564	0.674506	 3.32312	 98.2594	 4.42411	 351.735	 3096.85	  183725
0.475694	0.587966	 2.49861	  42.742	0.0912455	 5.87563	0.0661099	 3.20653	0.674943	 3.32248	 98.2544	 4.42488	  351.57	 3096.93	  183893
0.479167	0.587687	  2.5056	  42.742	0.091329	 5.89457	0.0661394	 3.20736	0.675358	 3.32181	 98.2494	 4.42565	 351.405	    3097	  184061
0.482639	0.587409	  2.5126	  42.742	0.0914121	 5.91343	0.0661683	 3.20813	0.675751	 3.32112	 98.2444	 4.42642	 351.241	 3097.07	  184228
0.486111	0.587131	 2.51961	  42.742	0.0914948	  5.9322	0.0661966	 3.20884	0.676122	 3.32041	 98.2394	  4.4272	 351.077	 3097.14	  184393
0.489583	0.586853	 2.52664	  42.742	0.0915771	 5.95088	0.0662243	  3.2095	0.676473	 3.31968	 98.2344	 4.42797	 350.914	 3097.21	  184558
0.493056	0.586576	 2.53368	  42.742	0.0916589	 5.96948	0.0662515	 3.21011	0.676802	 3.31893	 98.2295	 4.42874	  350.75	 3097.28	  184723
