#.t	.Aer_Anox_ZP.C(S_A)	.Aer_Anox_ZP.C(S_F)	.Aer_Anox_ZP.C(S_I)	.Aer_Anox_ZP.C(S_N2O)	.Aer_Anox_ZP.C(S_NH)	.Aer_Anox_ZP.C(S_NO)	.Aer_Anox_ZP.C(S_NO2)	.Aer_Anox_ZP.C(S_NO3)	.Aer_Anox_ZP.C(S_O)	.Aer_Anox_ZP.C(X_BA1)	.Aer_Anox_ZP.C(X_BA2)	.Aer_Anox_ZP.C(X_H)	.Aer_Anox_ZP.C(X_TSS)	.Aer_Anox_ZP.FluxN2O_gas
#d	g/m3	g/m3	g/m3	g/m3	g/m3	g/m3	g/m3	g/m3	g/m3	g/m3	g/m3	g/m3	g/m3	g/d
       0	0.449869	 4.21568	  42.742	0.0460128	  2.3963	0.0565285	0.492947	0.0173533	 1.80465	 98.8969	 4.30192	 376.727	 3082.91	 92803.7
0.00347222	0.508472	 4.14322	  42.742	0.0616204	 2.46658	0.0276278	0.531645	0.0303909	 2.06721	 98.8891	 4.30274	 376.526	 3082.98	  124281
0.00694444	0.559876	 4.14468	  42.742	0.0523328	 2.51056	0.0254505	0.627264	0.0444744	 2.17963	 98.8866	 4.30383	 376.295	 3083.09	  105548
0.0104167	0.596855	 4.11886	  42.742	0.0499867	 2.54772	0.0273944	0.713468	0.0592958	 2.25888	 98.8849	 4.30517	 376.075	 3083.25	  100816
0.0138889	0.622314	 4.08371	  42.742	0.0513858	 2.58101	0.0297389	0.796474	0.0738243	 2.31625	 98.8836	 4.30654	  375.86	 3083.42	  103637
0.0173611	0.639456	 4.04155	  42.742	0.0541016	 2.61285	0.0319573	0.875739	0.0880068	 2.36221	 98.8823	 4.30791	  375.65	  3083.6	  109113
0.0208333	0.650646	  3.9926	  42.742	0.0570856	 2.64382	0.0339677	 0.95077	0.101813	 2.40111	 98.8809	 4.30928	 375.444	 3083.78	  115131
0.0243056	0.657626	 3.93857	  42.742	0.0599688	 2.67429	0.035782	 1.02186	0.115218	 2.43527	 98.8793	 4.31062	 375.241	 3083.96	  120945
0.0277778	0.661703	 3.88082	  42.742	0.0626256	 2.70444	0.0374229	 1.08934	0.128227	 2.46612	 98.8775	 4.31195	 375.042	 3084.15	  126303
 0.03125	0.663805	 3.82045	  42.742	0.0650262	 2.73438	0.0389124	 1.15354	0.140855	 2.49455	 98.8756	 4.31325	 374.845	 3084.33	  131144
0.0347222	0.664579	 3.75835	  42.742	0.0671757	 2.76416	0.0402692	 1.21476	0.153114	 2.52116	 98.8734	 4.31452	 374.649	 3084.51	  135478
0.0381944	0.664497	 3.69527	  42.742	0.0690955	  2.7938	0.0415113	  1.2733	0.165027	 2.54633	 98.8711	 4.31577	 374.456	 3084.69	  139350
0.0416667	0.663868	 3.63179	  42.742	0.0708082	 2.82332	0.0426528	 1.32941	0.176611	 2.57035	 98.8687	   4.317	 374.263	 3084.87	  142803
0.0451389	0.662903	 3.56837	  42.742	0.0723337	 2.85272	0.0437048	  1.3833	0.187881	 2.59338	  98.866	 4.31821	 374.072	 3085.04	  145879
0.0486111	0.661744	 3.50541	  42.742	0.0736938	 2.88202	0.0446783	 1.43518	0.198857	 2.61557	 98.8633	 4.31939	 373.882	 3085.22	  148621
0.0520833	0.660481	 3.44319	  42.742	0.0749068	 2.91121	0.0455819	 1.48522	0.209555	 2.63701	 98.8604	 4.32055	 373.692	 3085.39	  151067
0.0555556	 0.65917	 3.38195	  42.742	0.0759885	  2.9403	0.0464231	 1.53356	0.219991	  2.6578	 98.8573	  4.3217	 373.502	 3085.55	  153248
0.0590278	0.657844	  3.3219	  42.742	0.0769533	 2.96929	0.0472082	 1.58033	0.230179	 2.67797	 98.8542	 4.32283	 373.313	 3085.72	  155193
  0.0625	0.656522	 3.26318	  42.742	0.0778126	 2.99818	0.0479423	 1.62564	0.240128	 2.69758	 98.8509	 4.32394	 373.124	 3085.88	  156925
0.0659722	0.655212	 3.20592	  42.742	0.078578	 3.02696	0.0486305	 1.66958	0.249853	 2.71666	 98.8475	 4.32504	 372.935	 3086.04	  158468
0.0694444	0.653918	 3.15021	  42.742	0.0792599	 3.05566	0.0492771	 1.71225	0.259366	 2.73525	 98.8441	 4.32612	 372.746	 3086.19	  159842
0.0729167	0.652639	 3.09612	  42.742	0.0798665	 3.08425	0.0498857	 1.75372	0.268675	 2.75337	 98.8405	 4.32719	 372.557	 3086.35	  161065
0.0763889	0.651374	 3.04373	  42.742	0.0804045	 3.11276	0.0504591	 1.79404	0.277788	 2.77104	 98.8368	 4.32824	 372.368	  3086.5	  162149
0.0798611	0.650121	 2.99305	  42.742	0.0808826	 3.14118	0.051001	  1.8333	0.286717	 2.78828	 98.8331	 4.32929	 372.179	 3086.64	  163112
0.0833333	0.648879	 2.94417	  42.742	0.0813049	 3.16951	0.0515128	  1.8715	0.295463	 2.80511	 98.8292	 4.33032	 371.989	 3086.79	  163963
0.0868055	0.647646	 2.89704	  42.742	0.0816788	 3.19776	0.0519979	 1.90873	0.304041	 2.82154	 98.8253	 4.33134	   371.8	 3086.93	  164716
0.0902778	0.646421	 2.85173	  42.742	0.0820081	 3.22593	0.0524578	 1.94501	0.312451	 2.83758	 98.8213	 4.33235	  371.61	 3087.08	  165379
 0.09375	0.645204	  2.8082	  42.742	0.0822979	 3.25402	0.0528944	 1.98038	  0.3207	 2.85325	 98.8173	 4.33335	 371.421	 3087.21	  165963
0.0972222	0.643996	 2.76646	  42.742	0.0825526	 3.28204	0.0533096	 2.01487	0.328796	 2.86856	 98.8132	 4.33434	 371.231	 3087.35	  166475
0.100694	0.642798	 2.72649	  42.742	0.0827756	 3.30998	0.0537049	 2.04851	0.336742	 2.88351	  98.809	 4.33533	 371.041	 3087.49	  166924
0.104167	 0.64161	  2.6883	  42.742	0.0829701	 3.33785	0.0540814	 2.08131	 0.34454	  2.8981	 98.8047	  4.3363	 370.851	 3087.62	  167315
0.107639	0.640435	 2.65184	  42.742	0.0831397	 3.36565	0.0544408	 2.11332	0.352197	 2.91236	 98.8004	 4.33727	  370.66	 3087.75	  167656
0.111111	0.639273	 2.61709	  42.742	0.0832873	 3.39338	0.0547842	 2.14455	0.359716	 2.92628	  98.796	 4.33823	  370.47	 3087.88	  167952
0.114583	0.638127	   2.584	  42.742	0.0834154	 3.42104	0.0551126	 2.17503	  0.3671	 2.93987	 98.7915	 4.33918	 370.279	    3088	  168210
0.118056	0.636997	 2.55255	  42.742	0.0835264	 3.44864	0.0554271	 2.20476	0.374352	 2.95314	  98.787	 4.34013	 370.088	 3088.13	  168433
0.121528	0.635886	 2.52271	  42.742	0.0836224	 3.47618	0.0557284	 2.23377	0.381474	 2.96608	 98.7825	 4.34107	 369.898	 3088.25	  168625
   0.125	0.634795	 2.49444	  42.742	0.0837054	 3.50365	0.0560176	 2.26207	 0.38847	 2.97871	 98.7779	 4.34201	 369.707	 3088.37	  168791
0.128472	0.633725	 2.46768	  42.742	0.0837774	 3.53105	0.0562955	 2.28968	0.395341	 2.99102	 98.7733	 4.34293	 369.516	 3088.49	  168935
0.131944	0.632676	 2.44238	  42.742	 0.08384	  3.5584	0.0565627	 2.31661	 0.40209	 3.00303	 98.7686	 4.34386	 369.325	 3088.61	  169060
0.135417	 0.63165	 2.41851	  42.742	0.0838945	 3.58568	 0.05682	 2.34288	 0.40872	 3.01474	 98.7639	 4.34478	 369.134	 3088.72	  169169
0.138889	0.630648	 2.39601	  42.742	0.0839425	  3.6129	0.057068	 2.36851	0.415231	 3.02615	 98.7591	 4.34569	 368.943	 3088.84	  169265
0.142361	0.629669	 2.37484	  42.742	0.083985	 3.64005	0.0573073	 2.39351	0.421627	 3.03726	 98.7543	  4.3466	 368.752	 3088.95	  169349
0.145833	0.628715	 2.35497	  42.742	0.0840232	 3.66715	0.0575382	 2.41787	0.427906	 3.04808	 98.7494	  4.3475	 368.561	 3089.06	  169425
0.149306	0.627785	 2.33632	  42.742	0.084058	 3.69418	0.0577615	 2.44163	0.434073	 3.05861	 98.7446	  4.3484	  368.37	 3089.17	  169494
0.152778	0.626879	 2.31887	  42.742	0.0840903	 3.72115	0.0579774	 2.46479	0.440128	 3.06886	 98.7396	  4.3493	  368.18	 3089.28	  169558
 0.15625	0.625997	 2.30255	  42.742	0.0841208	 3.74805	0.0581866	 2.48737	0.446074	 3.07883	 98.7347	 4.35019	 367.989	 3089.39	  169619
0.159722	0.625139	 2.28732	  42.742	0.0841503	  3.7749	0.0583893	 2.50938	0.451911	 3.08853	 98.7297	 4.35108	 367.798	 3089.49	  169677
0.163194	0.624303	 2.27314	  42.742	0.0841793	 3.80168	0.058586	 2.53083	0.457641	 3.09795	 98.7247	 4.35196	 367.608	  3089.6	  169734
0.166667	0.623491	 2.25997	  42.742	0.0842083	 3.82839	0.0587769	 2.55172	0.463265	 3.10711	 98.7197	 4.35284	 367.417	  3089.7	  169792
0.170139	0.622702	 2.24776	  42.742	0.0842378	 3.85504	0.0589623	 2.57208	0.468784	   3.116	 98.7146	 4.35372	 367.227	  3089.8	  169850
0.173611	0.621934	 2.23645	  42.742	0.0842681	 3.88162	0.0591426	 2.59192	0.474201	 3.12464	 98.7096	 4.35459	 367.037	 3089.91	  169910
0.177083	0.621187	 2.22604	  42.742	0.0842997	 3.90814	0.059318	 2.61124	0.479515	 3.13303	 98.7045	 4.35546	 366.847	 3090.01	  169972
0.180556	0.620461	 2.21646	  42.742	0.0843326	 3.93459	0.0594886	 2.63005	0.484728	 3.14116	 98.6993	 4.35633	 366.658	 3090.11	  170038
0.184028	0.619756	 2.20769	  42.742	0.0843673	 3.96097	0.0596549	 2.64837	 0.48984	 3.14905	 98.6942	 4.35719	 366.468	  3090.2	  170107
  0.1875	0.619069	 2.19968	  42.742	0.0844038	 3.98729	0.0598169	  2.6662	0.494855	  3.1567	  98.689	 4.35806	 366.279	  3090.3	  170179
0.190972	0.618401	  2.1924	  42.742	0.0844423	 4.01353	0.0599749	 2.68357	0.499772	 3.16412	 98.6839	 4.35892	 366.089	  3090.4	  170256
0.194444	 0.61775	 2.18581	  42.742	0.0844829	  4.0397	0.060129	 2.70047	0.504593	  3.1713	 98.6787	 4.35977	 365.901	 3090.49	  170336
0.197917	0.617117	 2.17988	  42.742	0.0845257	 4.06581	0.0602794	 2.71692	 0.50932	 3.17826	 98.6735	 4.36063	 365.712	 3090.59	  170422
0.201389	  0.6165	 2.17459	  42.742	0.0845708	 4.09184	0.0604263	 2.73293	0.513952	 3.18499	 98.6682	 4.36148	 365.523	 3090.68	  170511
0.204861	0.615899	 2.16989	  42.742	0.0846182	 4.11779	0.0605698	 2.74851	0.518492	 3.19151	  98.663	 4.36233	 365.335	 3090.78	  170606
0.208333	0.615313	 2.16576	  42.742	0.0846679	 4.14368	0.0607099	 2.76367	0.522941	 3.19782	 98.6578	 4.36317	 365.147	 3090.87	  170705
0.211806	0.614742	 2.16218	  42.742	0.0847199	 4.16949	0.060847	 2.77841	0.527299	 3.20392	 98.6525	 4.36402	 364.959	 3090.96	  170809
0.215278	0.614184	 2.15912	  42.742	0.0847742	 4.19522	0.060981	 2.79276	0.531568	 3.20982	 98.6472	 4.36486	 364.772	 3091.05	  170917
 0.21875	0.613639	 2.15655	  42.742	0.0848307	 4.22088	0.061112	 2.80671	0.535749	 3.21552	 98.6419	  4.3657	 364.585	 3091.14	  171030
0.222222	0.613108	 2.15445	  42.742	0.0848895	 4.24646	0.0612402	 2.82028	0.539844	 3.22102	 98.6366	 4.36654	 364.398	 3091.23	  171147
0.225694	0.612588	  2.1528	  42.742	0.0849504	 4.27196	0.0613657	 2.83347	0.543852	 3.22633	 98.6313	 4.36738	 364.211	 3091.32	  171269
0.229167	0.612079	 2.15157	  42.742	0.0850135	 4.29739	0.0614885	  2.8463	0.547776	 3.23146	  98.626	 4.36821	 364.025	 3091.41	  171395
0.232639	0.611582	 2.15075	  42.742	0.0850786	 4.32273	0.0616087	 2.85877	0.551617	 3.23641	 98.6207	 4.36904	 363.838	  3091.5	  171526
0.236111	0.611095	 2.15031	  42.742	0.0851457	   4.348	0.0617265	 2.87089	0.555375	 3.24118	 98.6154	 4.36987	 363.653	 3091.59	  171660
0.239583	0.610618	 2.15023	  42.742	0.0852147	 4.37318	0.0618418	 2.88267	0.559053	 3.24578	 98.6101	  4.3707	 363.467	 3091.68	  171798
0.243056	0.610151	 2.15051	  42.742	0.0852856	 4.39828	0.0619547	 2.89412	 0.56265	 3.25021	 98.6048	 4.37153	 363.282	 3091.76	  171940
0.246528	0.609692	 2.15111	  42.742	0.0853582	  4.4233	0.0620653	 2.90525	0.566169	 3.25448	 98.5994	 4.37236	 363.097	 3091.85	  172085
    0.25	0.609243	 2.15203	  42.742	0.0854325	 4.44824	0.0621737	 2.91606	 0.56961	 3.25858	 98.5941	 4.37318	 362.912	 3091.94	  172234
0.253472	0.608801	 2.15325	  42.742	0.0855085	 4.47309	0.0622799	 2.92657	0.572974	 3.26253	 98.5887	 4.37401	 362.728	 3092.02	  172386
0.256944	0.608367	 2.15475	  42.742	0.0855859	 4.49786	0.062384	 2.93677	0.576263	 3.26633	 98.5834	 4.37483	 362.544	 3092.11	  172541
0.260417	0.607941	 2.15652	  42.742	0.0856648	 4.52255	0.062486	 2.94668	0.579478	 3.26998	 98.5781	 4.37565	  362.36	 3092.19	  172699
0.263889	0.607522	 2.15856	  42.742	0.0857451	 4.54715	0.062586	 2.95631	0.582619	 3.27348	 98.5727	 4.37647	 362.176	 3092.28	  172860
0.267361	0.607109	 2.16083	  42.742	0.0858266	 4.57166	0.062684	 2.96565	0.585689	 3.27685	 98.5674	 4.37728	 361.993	 3092.36	  173023
0.270833	0.606703	 2.16334	  42.742	0.0859094	 4.59609	 0.06278	 2.97473	0.588688	 3.28007	  98.562	  4.3781	  361.81	 3092.44	  173189
0.274306	0.606303	 2.16607	  42.742	0.0859933	 4.62043	0.0628742	 2.98354	0.591616	 3.28317	 98.5567	 4.37891	 361.628	 3092.53	  173357
0.277778	0.605909	 2.16901	  42.742	0.0860783	 4.64468	0.0629665	 2.99209	0.594476	 3.28613	 98.5513	 4.37973	 361.445	 3092.61	  173528
 0.28125	 0.60552	 2.17216	  42.742	0.0861643	 4.66885	0.0630571	  3.0004	0.597269	 3.28896	  98.546	 4.38054	 361.263	 3092.69	  173700
0.284722	0.605136	 2.17549	  42.742	0.0862512	 4.69292	0.0631458	 3.00845	0.599995	 3.29167	 98.5406	 4.38135	 361.082	 3092.77	  173874
0.288194	0.604758	   2.179	  42.742	0.0863389	 4.71691	0.0632329	 3.01627	0.602655	 3.29427	 98.5353	 4.38216	   360.9	 3092.86	  174050
0.291667	0.604384	 2.18269	  42.742	0.0864275	 4.74081	0.0633182	 3.02385	0.605251	 3.29674	 98.5299	 4.38297	 360.719	 3092.94	  174228
0.295139	0.604015	 2.18655	  42.742	0.0865168	 4.76461	0.0634019	 3.03121	0.607784	  3.2991	 98.5246	 4.38378	 360.539	 3093.02	  174407
0.298611	 0.60365	 2.19056	  42.742	0.0866067	 4.78833	0.063484	 3.03834	0.610255	 3.30135	 98.5193	 4.38458	 360.358	  3093.1	  174587
0.302083	0.603289	 2.19472	  42.742	0.0866973	 4.81196	0.0635644	 3.04526	0.612663	 3.30349	 98.5139	 4.38539	 360.178	 3093.18	  174769
0.305556	0.602933	 2.19902	  42.742	0.0867885	  4.8355	0.0636433	 3.05197	0.615012	 3.30552	 98.5086	 4.38619	 359.999	 3093.26	  174952
0.309028	 0.60258	 2.20345	  42.742	0.0868801	 4.85894	0.0637207	 3.05847	0.617301	 3.30746	 98.5033	   4.387	 359.819	 3093.34	  175136
  0.3125	 0.60223	 2.20802	  42.742	0.0869722	  4.8823	0.0637966	 3.06478	0.619533	 3.30929	 98.4979	  4.3878	  359.64	 3093.42	  175320
0.315972	0.601884	 2.21271	  42.742	0.0870647	 4.90556	0.063871	 3.07088	0.621707	 3.31103	 98.4926	  4.3886	 359.461	  3093.5	  175506
0.319444	0.601541	 2.21751	  42.742	0.0871576	 4.92873	0.063944	  3.0768	0.623825	 3.31267	 98.4873	  4.3894	 359.283	 3093.58	  175692
0.322917	0.601201	 2.22243	  42.742	0.0872507	 4.95181	0.0640156	 3.08253	0.625888	 3.31422	  98.482	  4.3902	 359.104	 3093.66	  175879
0.326389	0.600864	 2.22745	  42.742	0.0873441	 4.97479	0.0640857	 3.08809	0.627896	 3.31569	 98.4767	   4.391	 358.927	 3093.74	  176066
0.329861	 0.60053	 2.23257	  42.742	0.0874378	 4.99769	0.0641546	 3.09346	0.629851	 3.31706	 98.4714	  4.3918	 358.749	 3093.81	  176254
0.333333	0.600199	 2.23779	  42.742	0.0875316	 5.02049	0.0642221	 3.09867	0.631754	 3.31836	 98.4661	  4.3926	 358.572	 3093.89	  176443
0.336806	 0.59987	  2.2431	  42.742	0.0876256	  5.0432	0.0642883	 3.10371	0.633605	 3.31957	 98.4608	 4.39339	 358.395	 3093.97	  176631
0.340278	0.599544	  2.2485	  42.742	0.0877197	 5.06581	0.0643532	 3.10858	0.635407	  3.3207	 98.4555	 4.39419	 358.218	 3094.05	  176820
 0.34375	 0.59922	 2.25398	  42.742	0.0878139	 5.08834	0.0644169	  3.1133	0.637159	 3.32176	 98.4502	 4.39498	 358.042	 3094.13	  177009
0.347222	0.598898	 2.25954	  42.742	0.0879081	 5.11077	0.0644793	 3.11786	0.638861	 3.32274	 98.4449	 4.39578	 357.866	  3094.2	  177198
0.350694	0.598578	 2.26518	  42.742	0.0880024	 5.13311	0.0645406	 3.12227	0.640517	 3.32365	 98.4396	 4.39657	  357.69	 3094.28	  177387
0.354167	0.598261	 2.27089	  42.742	0.0880966	 5.15535	0.0646007	 3.12654	0.642125	 3.32449	 98.4344	 4.39736	 357.515	 3094.36	  177576
0.357639	0.597945	 2.27667	  42.742	0.0881908	  5.1775	0.0646595	 3.13066	0.643687	 3.32526	 98.4291	 4.39815	  357.34	 3094.43	  177765
0.361111	0.597631	 2.28251	  42.742	0.0882849	 5.19956	0.0647173	 3.13464	0.645204	 3.32596	 98.4239	 4.39894	 357.165	 3094.51	  177954
0.364583	0.597319	 2.28842	  42.742	0.0883789	 5.22152	0.0647739	 3.13848	0.646677	  3.3266	 98.4186	 4.39973	 356.991	 3094.59	  178142
0.368056	0.597009	 2.29439	  42.742	0.0884728	 5.24339	0.0648295	  3.1422	0.648106	 3.32718	 98.4134	 4.40052	 356.817	 3094.66	  178331
0.371528	0.596701	 2.30041	  42.742	0.0885666	 5.26517	0.064884	 3.14578	0.649493	  3.3277	 98.4081	 4.40131	 356.643	 3094.74	  178519
   0.375	0.596394	 2.30649	  42.742	0.0886602	 5.28685	0.0649374	 3.14924	0.650838	 3.32816	 98.4029	  4.4021	 356.469	 3094.81	  178707
0.378472	0.596088	 2.31262	  42.742	0.0887536	 5.30845	0.0649898	 3.15257	0.652142	 3.32856	 98.3977	 4.40289	 356.296	 3094.89	  178894
0.381944	0.595784	  2.3188	  42.742	0.0888469	 5.32994	0.0650412	 3.15578	0.653406	 3.32891	 98.3924	 4.40367	 356.123	 3094.96	  179081
0.385417	0.595481	 2.32503	  42.742	0.0889399	 5.35135	0.0650915	 3.15888	0.654631	  3.3292	 98.3872	 4.40446	 355.951	 3095.04	  179268
0.388889	 0.59518	 2.33131	  42.742	0.0890327	 5.37266	0.0651409	 3.16186	0.655816	 3.32944	  98.382	 4.40524	 355.778	 3095.11	  179454
0.392361	 0.59488	 2.33763	  42.742	0.0891252	 5.39388	0.0651894	 3.16473	0.656964	 3.32963	 98.3768	 4.40603	 355.606	 3095.19	  179640
0.395833	0.594581	 2.34399	  42.742	0.0892175	 5.41501	0.0652369	  3.1675	0.658075	 3.32977	 98.3716	 4.40681	 355.435	 3095.26	  179825
0.399306	0.594283	 2.35039	  42.742	0.0893095	 5.43604	0.0652834	 3.17015	0.659149	 3.32986	 98.3665	  4.4076	 355.263	 3095.34	  180010
0.402778	0.593987	 2.35683	  42.742	0.0894013	 5.45698	0.0653291	 3.17271	0.660188	 3.32991	 98.3613	 4.40838	 355.092	 3095.41	  180194
 0.40625	0.593692	  2.3633	  42.742	0.0894927	 5.47783	0.0653739	 3.17516	0.661192	 3.32991	 98.3561	 4.40916	 354.922	 3095.48	  180377
0.409722	0.593397	 2.36981	  42.742	0.0895838	 5.49858	0.0654178	 3.17752	0.662161	 3.32987	 98.3509	 4.40994	 354.751	 3095.56	  180560
0.413194	0.593104	 2.37636	  42.742	0.0896746	 5.51925	0.0654609	 3.17978	0.663097	 3.32979	 98.3458	 4.41072	 354.581	 3095.63	  180742
0.416667	0.592812	 2.38294	  42.742	0.0897651	 5.53982	0.0655031	 3.18195	   0.664	 3.32967	 98.3406	  4.4115	 354.411	  3095.7	  180924
0.420139	 0.59252	 2.38954	  42.742	0.0898552	  5.5603	0.0655445	 3.18402	 0.66487	 3.32951	 98.3355	 4.41228	 354.242	 3095.78	  181104
0.423611	 0.59223	 2.39618	  42.742	0.089945	 5.58069	0.0655851	 3.18601	0.665709	 3.32931	 98.3304	 4.41306	 354.073	 3095.85	  181285
0.427083	 0.59194	 2.40285	  42.742	0.0900345	 5.60098	0.0656248	 3.18791	0.666517	 3.32907	 98.3253	 4.41384	 353.904	 3095.92	  181464
0.430556	0.591652	 2.40954	  42.742	0.0901235	 5.62119	0.0656639	 3.18973	0.667295	  3.3288	 98.3201	 4.41462	 353.735	    3096	  181643
0.434028	0.591364	 2.41626	  42.742	0.0902122	  5.6413	0.0657021	 3.19147	0.668044	 3.32849	  98.315	  4.4154	 353.567	 3096.07	  181821
  0.4375	0.591077	 2.42301	  42.742	0.0903006	 5.66132	0.0657396	 3.19312	0.668763	 3.32815	 98.3099	 4.41618	 353.399	 3096.14	  181998
0.440972	0.590791	 2.42978	  42.742	0.0903885	 5.68125	0.0657764	  3.1947	0.669453	 3.32778	 98.3048	 4.41695	 353.231	 3096.21	  182174
0.444444	0.590505	 2.43657	  42.742	0.0904761	 5.70109	0.0658124	  3.1962	0.670116	 3.32737	 98.2998	 4.41773	 353.063	 3096.28	  182350
0.447917	 0.59022	 2.44338	  42.742	0.0905633	 5.72084	0.0658477	 3.19762	0.670751	 3.32694	 98.2947	 4.41851	 352.896	 3096.36	  182525
0.451389	0.589936	 2.45022	  42.742	 0.09065	  5.7405	0.0658823	 3.19897	 0.67136	 3.32648	 98.2896	 4.41928	  352.73	 3096.43	  182699
0.454861	0.589653	 2.45708	  42.742	0.0907364	 5.76007	0.0659163	 3.20025	0.671943	 3.32598	 98.2846	 4.42006	 352.563	  3096.5	  182872
0.458333	 0.58937	 2.46396	  42.742	0.0908224	 5.77955	0.0659495	 3.20147	  0.6725	 3.32546	 98.2795	 4.42083	 352.397	 3096.57	  183045
0.461806	0.589088	 2.47085	  42.742	0.090908	 5.79894	0.0659821	 3.20261	0.673032	 3.32492	 98.2745	  4.4216	 352.231	 3096.64	  183216
0.465278	0.588807	 2.47777	  42.742	0.0909931	 5.81824	0.0660141	 3.20369	 0.67354	 3.32434	 98.2694	 4.42238	 352.065	 3096.71	  183387
 0.46875	0.588526	  2.4847	  42.742	0.0910779	 5.83746	0.0660454	  3.2047	0.674023	 3.32375	 98.2644	 4.42315	   351.9	 3096.78	  183557
0.472222	0.588246	 2.49165	  42.742	0.0911622	 5.85658	0.0660761	 3.20565	0.674483	 3.32312	 98.2594	 4.42392	 351.735	 3096.85	  183726
0.475694	0.587966	 2.49862	  42.742	0.0912462	 5.87561	0.0661062	 3.20654	 0.67492	 3.32248	 98.2544	 4.42469	  351.57	 3096.93	  183895
0.479167	0.587687	  2.5056	  42.742	0.0913297	 5.89456	0.0661357	 3.20737	0.675335	 3.32181	 98.2494	 4.42547	 351.405	    3097	  184062
0.482639	0.587409	  2.5126	  42.742	0.0914128	 5.91342	0.0661646	 3.20815	0.675728	 3.32112	 98.2444	 4.42624	 351.241	 3097.07	  184229
0.486111	0.587131	 2.51961	  42.742	0.0914955	 5.93219	0.0661929	 3.20886	0.676099	 3.32041	 98.2394	 4.42701	 351.077	 3097.14	  184395
0.489583	0.586854	 2.52664	  42.742	0.0915777	 5.95087	0.0662206	 3.20952	0.676449	 3.31968	 98.2344	 4.42778	 350.914	 3097.21	  184560
0.493056	0.586577	 2.53368	  42.742	0.0916596	 5.96946	0.0662478	 3.21012	0.676779	 3.31893	 98.2295	 4.42855	  350.75	 3097.28	  184724
