#.t	.Aer_Anox_ZP.C(S_A)	.Aer_Anox_ZP.C(S_F)	.Aer_Anox_ZP.C(S_I)	.Aer_Anox_ZP.C(S_N2O)	.Aer_Anox_ZP.C(S_NH)	.Aer_Anox_ZP.C(S_NO)	.Aer_Anox_ZP.C(S_NO2)	.Aer_Anox_ZP.C(S_NO3)	.Aer_Anox_ZP.C(S_O)	.Aer_Anox_ZP.C(X_BA1)	.Aer_Anox_ZP.C(X_BA2)	.Aer_Anox_ZP.C(X_H)	.Aer_Anox_ZP.C(X_TSS)	.Aer_Anox_ZP.FluxN2O_gas
#d	g/m3	g/m3	g/m3	g/m3	g/m3	g/m3	g/m3	g/m3	g/m3	g/m3	g/m3	g/m3	g/m3	g/d
       0	0.449869	 4.21568	  42.742	0.0460128	  2.3963	0.0565285	0.492947	0.0173533	 1.80465	 98.8969	 4.30192	 376.727	 3082.91	 92803.7
0.00347222	0.508472	 4.14322	  42.742	0.0616205	 2.46658	0.0276281	0.531645	0.0303909	 2.06721	 98.8891	 4.30274	 376.526	 3082.98	  124281
0.00694444	0.559876	 4.14468	  42.742	0.0523331	 2.51056	0.0254509	0.627264	0.0444744	 2.17963	 98.8866	 4.30383	 376.295	 3083.09	  105549
0.0104167	0.596855	 4.11886	  42.742	0.0499871	 2.54772	0.0273948	0.713467	0.0592958	 2.25888	 98.8849	 4.30517	 376.075	 3083.25	  100817
0.0138889	0.622314	 4.08371	  42.742	0.0513864	 2.58101	0.0297395	0.796473	0.0738243	 2.31625	 98.8836	 4.30654	  375.86	 3083.42	  103638
0.0173611	0.639456	 4.04154	  42.742	0.0541023	 2.61284	0.031958	0.875737	0.0880067	 2.36221	 98.8823	 4.30791	  375.65	  3083.6	  109115
0.0208333	0.650646	  3.9926	  42.742	0.0570864	 2.64382	0.0339685	0.950768	0.101813	 2.40111	 98.8809	 4.30928	 375.444	 3083.78	  115133
0.0243056	0.657626	 3.93857	  42.742	0.0599698	 2.67429	0.035783	 1.02186	0.115218	 2.43527	 98.8793	 4.31062	 375.241	 3083.96	  120947
0.0277778	0.661703	 3.88082	  42.742	0.0626267	 2.70444	0.037424	 1.08934	0.128227	 2.46611	 98.8775	 4.31195	 375.042	 3084.15	  126305
 0.03125	0.663804	 3.82044	  42.742	0.0650275	 2.73438	0.0389136	 1.15354	0.140855	 2.49455	 98.8756	 4.31325	 374.845	 3084.33	  131147
0.0347222	0.664579	 3.75834	  42.742	0.0671771	 2.76415	0.0402705	 1.21475	0.153114	 2.52115	 98.8734	 4.31452	 374.649	 3084.51	  135481
0.0381944	0.664496	 3.69526	  42.742	0.0690971	 2.79379	0.0415127	 1.27329	0.165027	 2.54633	 98.8711	 4.31577	 374.456	 3084.69	  139353
0.0416667	0.663868	 3.63178	  42.742	 0.07081	 2.82331	0.0426544	 1.32941	0.176611	 2.57034	 98.8687	   4.317	 374.263	 3084.87	  142807
0.0451389	0.662903	 3.56837	  42.742	0.0723357	 2.85272	0.0437066	  1.3833	0.187881	 2.59337	  98.866	 4.31821	 374.072	 3085.04	  145883
0.0486111	0.661743	  3.5054	  42.742	0.073696	 2.88201	0.0446802	 1.43518	0.198857	 2.61556	 98.8633	 4.31939	 373.882	 3085.22	  148626
0.0520833	 0.66048	 3.44318	  42.742	0.0749091	 2.91121	0.045584	 1.48521	0.209555	 2.63701	 98.8604	 4.32055	 373.692	 3085.39	  151072
0.0555556	0.659169	 3.38194	  42.742	0.075991	 2.94029	0.0464254	 1.53355	0.219991	 2.65779	 98.8573	  4.3217	 373.502	 3085.55	  153253
0.0590278	0.657844	 3.32189	  42.742	0.076956	 2.96928	0.0472107	 1.58033	0.230178	 2.67797	 98.8542	 4.32283	 373.313	 3085.72	  155198
  0.0625	0.656521	 3.26317	  42.742	0.0778154	 2.99817	0.0479449	 1.62563	0.240128	 2.69757	 98.8509	 4.32394	 373.124	 3085.88	  156931
0.0659722	0.655212	 3.20591	  42.742	0.0785811	 3.02695	0.0486333	 1.66957	0.249853	 2.71665	 98.8475	 4.32504	 372.935	 3086.04	  158474
0.0694444	0.653917	 3.15019	  42.742	0.0792632	 3.05564	0.0492801	 1.71224	0.259365	 2.73524	 98.8441	 4.32612	 372.746	 3086.19	  159849
0.0729167	0.652638	  3.0961	  42.742	 0.07987	 3.08424	0.0498889	 1.75371	0.268675	 2.75336	 98.8405	 4.32719	 372.557	 3086.35	  161072
0.0763889	0.651373	 3.04372	  42.742	0.0804082	 3.11275	0.0504625	 1.79403	0.277787	 2.77103	 98.8368	 4.32824	 372.368	  3086.5	  162156
0.0798611	0.650121	 2.99304	  42.742	0.0808865	 3.14117	0.0510045	 1.83329	0.286716	 2.78827	 98.8331	 4.32928	 372.179	 3086.64	  163120
0.0833333	0.648878	 2.94416	  42.742	0.081309	  3.1695	0.0515166	 1.87149	0.295463	  2.8051	 98.8293	 4.33032	 371.989	 3086.79	  163971
0.0868055	0.647645	 2.89703	  42.742	0.0816831	 3.19775	0.0520019	 1.90872	 0.30404	 2.82153	 98.8253	 4.33134	   371.8	 3086.93	  164725
0.0902778	 0.64642	 2.85171	  42.742	0.0820127	 3.22591	0.052462	   1.945	 0.31245	 2.83757	 98.8214	 4.33235	  371.61	 3087.08	  165388
 0.09375	0.645203	 2.80819	  42.742	0.0823027	   3.254	0.0528988	 1.98036	  0.3207	 2.85324	 98.8173	 4.33335	 371.421	 3087.21	  165972
0.0972222	0.643995	 2.76644	  42.742	0.0825575	 3.28202	0.0533143	 2.01485	0.328796	 2.86854	 98.8132	 4.33434	 371.231	 3087.35	  166485
0.100694	0.642797	 2.72647	  42.742	0.0827808	 3.30996	0.0537098	 2.04849	0.336742	 2.88349	  98.809	 4.33533	 371.041	 3087.49	  166934
0.104167	0.641609	 2.68829	  42.742	0.0829755	 3.33783	0.0540865	  2.0813	 0.34454	 2.89809	 98.8047	  4.3363	 370.851	 3087.62	  167326
0.107639	0.640434	 2.65183	  42.742	0.0831453	 3.36563	0.0544461	 2.11331	0.352196	 2.91234	 98.8004	 4.33727	  370.66	 3087.75	  167667
0.111111	0.639272	 2.61707	  42.742	0.0832931	 3.39336	0.0547897	 2.14454	0.359715	 2.92626	  98.796	 4.33823	  370.47	 3087.88	  167964
0.114583	0.638126	 2.58398	  42.742	0.0834214	 3.42102	0.0551184	 2.17501	0.367099	 2.93986	 98.7915	 4.33918	 370.279	    3088	  168222
0.118056	0.636996	 2.55253	  42.742	0.0835327	 3.44862	0.0554331	 2.20474	0.374352	 2.95312	 98.7871	 4.34013	 370.088	 3088.13	  168445
0.121528	0.635885	 2.52269	  42.742	0.0836288	 3.47615	0.0557347	 2.23375	0.381474	 2.96606	 98.7825	 4.34107	 369.898	 3088.25	  168638
   0.125	0.634794	 2.49442	  42.742	0.0837121	 3.50362	0.0560242	 2.26205	0.388469	 2.97869	 98.7779	 4.34201	 369.707	 3088.37	  168805
0.128472	0.633724	 2.46766	  42.742	0.0837843	 3.53102	0.0563023	 2.28965	 0.39534	 2.99101	 98.7733	 4.34293	 369.516	 3088.49	  168949
0.131944	0.632675	 2.44236	  42.742	0.0838471	 3.55837	0.0565698	 2.31659	0.402089	 3.00302	 98.7686	 4.34386	 369.325	 3088.61	  169075
0.135417	 0.63165	 2.41849	  42.742	0.0839019	 3.58565	0.0568273	 2.34286	0.408719	 3.01472	 98.7639	 4.34478	 369.134	 3088.72	  169184
0.138889	0.630647	 2.39599	  42.742	 0.08395	 3.61286	0.0570756	 2.36849	 0.41523	 3.02613	 98.7591	 4.34569	 368.943	 3088.84	  169280
0.142361	0.629668	 2.37482	  42.742	0.0839928	 3.64002	0.057315	 2.39348	0.421626	 3.03724	 98.7543	  4.3466	 368.752	 3088.95	  169365
0.145833	0.628714	 2.35494	  42.742	0.0840311	 3.66711	0.0575462	 2.41785	0.427905	 3.04806	 98.7494	  4.3475	 368.561	 3089.06	  169441
0.149306	0.627784	  2.3363	  42.742	0.0840661	 3.69414	0.0577697	 2.44161	0.434072	 3.05859	 98.7446	  4.3484	  368.37	 3089.17	  169511
0.152778	0.626878	 2.31885	  42.742	0.0840986	 3.72111	0.057986	 2.46477	0.440127	 3.06884	 98.7397	  4.3493	  368.18	 3089.28	  169575
 0.15625	0.625996	 2.30252	  42.742	0.0841294	 3.74801	0.0581954	 2.48734	0.446073	 3.07881	 98.7347	 4.35019	 367.989	 3089.39	  169636
0.159722	0.625138	  2.2873	  42.742	0.0841591	 3.77485	0.0583983	 2.50935	 0.45191	 3.08851	 98.7297	 4.35108	 367.798	 3089.49	  169695
0.163194	0.624302	 2.27312	  42.742	0.0841883	 3.80163	0.0585953	  2.5308	 0.45764	 3.09793	 98.7247	 4.35196	 367.608	  3089.6	  169752
0.166667	 0.62349	 2.25994	  42.742	0.0842175	 3.82835	0.0587864	 2.55169	0.463264	 3.10709	 98.7197	 4.35284	 367.417	  3089.7	  169810
0.170139	0.622701	 2.24773	  42.742	0.0842472	 3.85499	0.058972	 2.57205	0.468783	 3.11598	 98.7147	 4.35372	 367.227	  3089.8	  169869
0.173611	0.621933	 2.23643	  42.742	0.0842777	 3.88158	0.0591526	 2.59189	  0.4742	 3.12462	 98.7096	 4.35459	 367.037	 3089.91	  169929
0.177083	0.621186	 2.22601	  42.742	0.0843094	 3.90809	0.0593282	 2.61121	0.479514	   3.133	 98.7045	 4.35546	 366.847	 3090.01	  169992
0.180556	 0.62046	 2.21644	  42.742	0.0843426	 3.93454	0.0594991	 2.63002	0.484727	 3.14114	 98.6994	 4.35633	 366.658	 3090.11	  170058
0.184028	0.619754	 2.20767	  42.742	0.0843774	 3.96092	0.0596656	 2.64833	0.489839	 3.14903	 98.6942	 4.35719	 366.468	  3090.2	  170127
  0.1875	0.619068	 2.19965	  42.742	0.0844141	 3.98723	0.0598279	 2.66617	0.494854	 3.15668	 98.6891	 4.35806	 366.279	  3090.3	  170200
0.190972	0.618399	 2.19237	  42.742	0.0844528	 4.01347	0.0599861	 2.68353	0.499771	 3.16409	 98.6839	 4.35892	 366.089	  3090.4	  170277
0.194444	0.617749	 2.18578	  42.742	0.0844936	 4.03965	0.0601404	 2.70043	0.504592	 3.17127	 98.6787	 4.35977	 365.901	 3090.49	  170358
0.197917	0.617116	 2.17986	  42.742	0.0845366	 4.06575	0.0602911	 2.71688	0.509318	 3.17823	 98.6735	 4.36063	 365.712	 3090.59	  170444
0.201389	0.616499	 2.17456	  42.742	0.0845819	 4.09178	0.0604382	 2.73289	0.513951	 3.18497	 98.6683	 4.36148	 365.523	 3090.68	  170534
0.204861	0.615898	 2.16986	  42.742	0.0846294	 4.11773	0.0605818	 2.74847	0.518491	 3.19149	  98.663	 4.36233	 365.335	 3090.78	  170629
0.208333	0.615312	 2.16574	  42.742	0.0846793	 4.14361	0.0607223	 2.76363	0.522939	 3.19779	 98.6578	 4.36317	 365.147	 3090.87	  170728
0.211806	 0.61474	 2.16216	  42.742	0.0847315	 4.16942	0.0608595	 2.77837	0.527297	 3.20389	 98.6525	 4.36402	 364.959	 3090.96	  170832
0.215278	0.614183	 2.15909	  42.742	0.0847859	 4.19515	0.0609937	 2.79272	0.531566	 3.20979	 98.6472	 4.36486	 364.772	 3091.05	  170941
 0.21875	0.613638	 2.15652	  42.742	0.0848427	 4.22081	0.061125	 2.80667	0.535748	 3.21549	  98.642	  4.3657	 364.585	 3091.14	  171054
0.222222	0.613106	 2.15442	  42.742	0.0849016	 4.24639	0.0612534	 2.82024	0.539842	 3.22099	 98.6367	 4.36654	 364.398	 3091.23	  171172
0.225694	0.612586	 2.15277	  42.742	0.0849627	 4.27189	0.0613791	 2.83343	 0.54385	  3.2263	 98.6314	 4.36738	 364.211	 3091.32	  171294
0.229167	0.612078	 2.15154	  42.742	0.0850259	 4.29731	0.0615021	 2.84625	0.547774	 3.23143	 98.6261	 4.36821	 364.025	 3091.41	  171420
0.232639	0.611581	 2.15072	  42.742	0.0850912	 4.32266	0.0616225	 2.85873	0.551615	 3.23638	 98.6207	 4.36904	 363.838	  3091.5	  171551
0.236111	0.611094	 2.15028	  42.742	0.0851585	 4.34792	0.0617404	 2.87084	0.555373	 3.24115	 98.6154	 4.36987	 363.653	 3091.59	  171686
0.239583	0.610617	  2.1502	  42.742	0.0852277	  4.3731	0.0618559	 2.88263	0.559051	 3.24575	 98.6101	  4.3707	 363.467	 3091.68	  171824
0.243056	0.610149	 2.15048	  42.742	0.0852987	  4.3982	0.061969	 2.89408	0.562648	 3.25018	 98.6048	 4.37153	 363.282	 3091.76	  171966
0.246528	0.609691	 2.15108	  42.742	0.0853715	 4.42322	0.0620799	 2.90521	0.566167	 3.25445	 98.5994	 4.37236	 363.097	 3091.85	  172112
    0.25	0.609241	   2.152	  42.742	0.0854459	 4.44816	0.0621884	 2.91602	0.569608	 3.25855	 98.5941	 4.37318	 362.912	 3091.94	  172261
0.253472	  0.6088	 2.15322	  42.742	0.085522	 4.47301	0.0622948	 2.92652	0.572972	  3.2625	 98.5888	 4.37401	 362.728	 3092.02	  172413
0.256944	0.608366	 2.15472	  42.742	0.0855996	 4.49778	0.0623991	 2.93672	0.576261	  3.2663	 98.5834	 4.37483	 362.544	 3092.11	  172569
0.260417	0.607939	 2.15649	  42.742	0.0856786	 4.52246	0.0625012	 2.94664	0.579476	 3.26995	 98.5781	 4.37565	  362.36	 3092.19	  172727
0.263889	 0.60752	 2.15852	  42.742	0.085759	 4.54706	0.0626014	 2.95626	0.582617	 3.27345	 98.5727	 4.37647	 362.176	 3092.28	  172888
0.267361	0.607108	  2.1608	  42.742	0.0858407	 4.57157	0.0626996	 2.96561	0.585687	 3.27681	 98.5674	 4.37728	 361.993	 3092.36	  173052
0.270833	0.606701	 2.16331	  42.742	0.0859236	 4.59599	0.0627958	 2.97468	0.588685	 3.28004	  98.562	  4.3781	  361.81	 3092.44	  173218
0.274306	0.606301	 2.16604	  42.742	0.0860077	 4.62033	0.0628901	 2.98349	0.591614	 3.28313	 98.5567	 4.37891	 361.628	 3092.53	  173386
0.277778	0.605907	 2.16898	  42.742	0.0860928	 4.64458	0.0629826	 2.99204	0.594474	 3.28609	 98.5513	 4.37973	 361.445	 3092.61	  173557
 0.28125	0.605518	 2.17212	  42.742	0.0861789	 4.66874	0.0630733	 3.00034	0.597267	 3.28893	  98.546	 4.38054	 361.263	 3092.69	  173730
0.284722	0.605135	 2.17546	  42.742	0.0862659	 4.69282	0.0631622	  3.0084	0.599992	 3.29164	 98.5407	 4.38135	 361.082	 3092.77	  173904
0.288194	0.604756	 2.17897	  42.742	0.0863538	  4.7168	0.0632494	 3.01622	0.602653	 3.29423	 98.5353	 4.38216	   360.9	 3092.86	  174080
0.291667	0.604383	 2.18266	  42.742	0.0864425	  4.7407	0.0633349	  3.0238	0.605249	  3.2967	   98.53	 4.38297	 360.719	 3092.94	  174258
0.295139	0.604013	 2.18651	  42.742	0.0865319	  4.7645	0.0634187	 3.03115	0.607781	 3.29906	 98.5246	 4.38378	 360.539	 3093.02	  174438
0.298611	0.603649	 2.19052	  42.742	0.086622	 4.78822	0.0635009	 3.03829	0.610252	 3.30131	 98.5193	 4.38458	 360.358	  3093.1	  174618
0.302083	0.603288	 2.19468	  42.742	0.0867127	 4.81185	0.0635815	 3.04521	0.612661	 3.30345	  98.514	 4.38539	 360.178	 3093.18	  174800
0.305556	0.602931	 2.19898	  42.742	0.086804	 4.83538	0.0636606	 3.05192	 0.61501	 3.30549	 98.5086	 4.38619	 359.999	 3093.26	  174983
0.309028	0.602578	 2.20342	  42.742	0.0868958	 4.85882	0.0637381	 3.05842	0.617299	 3.30742	 98.5033	   4.387	 359.819	 3093.34	  175167
  0.3125	0.602228	 2.20798	  42.742	0.086988	 4.88218	0.0638141	 3.06472	 0.61953	 3.30925	  98.498	  4.3878	  359.64	 3093.42	  175352
0.315972	0.601882	 2.21267	  42.742	0.0870806	 4.90544	0.0638886	 3.07083	0.621704	 3.31099	 98.4926	  4.3886	 359.461	  3093.5	  175538
0.319444	 0.60154	 2.21748	  42.742	0.0871735	 4.92861	0.0639617	 3.07674	0.623822	 3.31263	 98.4873	  4.3894	 359.283	 3093.58	  175724
0.322917	  0.6012	 2.22239	  42.742	0.0872668	 4.95168	0.0640334	 3.08248	0.625885	 3.31418	  98.482	  4.3902	 359.104	 3093.66	  175911
0.326389	0.600863	 2.22741	  42.742	0.0873604	 4.97467	0.0641037	 3.08803	0.627893	 3.31565	 98.4767	   4.391	 358.927	 3093.74	  176099
0.329861	0.600529	 2.23254	  42.742	0.0874541	 4.99756	0.0641727	  3.0934	0.629848	 3.31702	 98.4714	  4.3918	 358.749	 3093.81	  176287
0.333333	0.600197	 2.23776	  42.742	0.0875481	 5.02036	0.0642403	 3.09861	0.631751	 3.31832	 98.4661	  4.3926	 358.572	 3093.89	  176476
0.336806	0.599869	 2.24307	  42.742	0.0876422	 5.04307	0.0643066	 3.10365	0.633603	 3.31953	 98.4608	 4.39339	 358.395	 3093.97	  176664
0.340278	0.599542	 2.24846	  42.742	0.0877364	 5.06568	0.0643717	 3.10852	0.635404	 3.32066	 98.4555	 4.39419	 358.218	 3094.05	  176853
 0.34375	0.599218	 2.25394	  42.742	0.0878306	  5.0882	0.0644355	 3.11324	0.637156	 3.32172	 98.4502	 4.39498	 358.042	 3094.13	  177042
0.347222	0.598897	 2.25951	  42.742	0.087925	 5.11063	0.064498	  3.1178	0.638858	  3.3227	 98.4449	 4.39578	 357.866	  3094.2	  177232
0.350694	0.598577	 2.26514	  42.742	0.0880193	 5.13297	0.0645594	 3.12221	0.640514	 3.32361	 98.4397	 4.39657	  357.69	 3094.28	  177421
0.354167	0.598259	 2.27085	  42.742	0.0881136	 5.15521	0.0646195	 3.12647	0.642121	 3.32445	 98.4344	 4.39736	 357.515	 3094.36	  177610
0.357639	0.597944	 2.27663	  42.742	0.0882079	 5.17735	0.0646785	 3.13059	0.643684	 3.32522	 98.4291	 4.39815	  357.34	 3094.43	  177799
0.361111	 0.59763	 2.28247	  42.742	0.0883021	 5.19941	0.0647364	 3.13458	0.645201	 3.32592	 98.4239	 4.39894	 357.165	 3094.51	  177988
0.364583	0.597318	 2.28838	  42.742	0.0883962	 5.22137	0.0647931	 3.13842	0.646673	 3.32656	 98.4186	 4.39973	 356.991	 3094.59	  178177
0.368056	0.597008	 2.29435	  42.742	0.0884902	 5.24324	0.0648488	 3.14213	0.648103	 3.32714	 98.4134	 4.40052	 356.817	 3094.66	  178366
0.371528	0.596699	 2.30037	  42.742	0.0885841	 5.26502	0.0649033	 3.14571	 0.64949	 3.32766	 98.4082	 4.40131	 356.643	 3094.74	  178554
   0.375	0.596392	 2.30645	  42.742	0.0886778	  5.2867	0.0649568	 3.14917	0.650835	 3.32811	 98.4029	  4.4021	 356.469	 3094.81	  178742
0.378472	0.596086	 2.31258	  42.742	0.0887713	 5.30829	0.0650093	  3.1525	0.652139	 3.32852	 98.3977	 4.40289	 356.296	 3094.89	  178930
0.381944	0.595782	 2.31876	  42.742	0.0888646	 5.32978	0.0650608	 3.15572	0.653403	 3.32886	 98.3925	 4.40367	 356.123	 3094.96	  179117
0.385417	 0.59548	 2.32499	  42.742	0.0889577	 5.35119	0.0651112	 3.15881	0.654627	 3.32915	 98.3873	 4.40446	 355.951	 3095.04	  179304
0.388889	0.595178	 2.33127	  42.742	0.0890506	  5.3725	0.0651607	  3.1618	0.655813	 3.32939	 98.3821	 4.40524	 355.778	 3095.11	  179490
0.392361	0.594878	 2.33759	  42.742	0.0891432	 5.39371	0.0652092	 3.16467	 0.65696	 3.32958	 98.3769	 4.40603	 355.606	 3095.19	  179676
0.395833	0.594579	 2.34395	  42.742	0.0892356	 5.41484	0.0652568	 3.16743	0.658071	 3.32972	 98.3717	 4.40681	 355.435	 3095.26	  179861
0.399306	0.594282	 2.35035	  42.742	0.0893277	 5.43587	0.0653034	 3.17009	0.659146	 3.32982	 98.3665	  4.4076	 355.263	 3095.34	  180046
0.402778	0.593985	 2.35679	  42.742	0.0894195	 5.45681	0.0653492	 3.17264	0.660184	 3.32986	 98.3613	 4.40838	 355.092	 3095.41	  180230
 0.40625	 0.59369	 2.36326	  42.742	0.089511	 5.47765	0.065394	  3.1751	0.661188	 3.32987	 98.3561	 4.40916	 354.922	 3095.48	  180414
0.409722	0.593396	 2.36977	  42.742	0.0896022	 5.49841	0.065438	 3.17745	0.662158	 3.32983	  98.351	 4.40994	 354.751	 3095.56	  180597
0.413194	0.593102	 2.37632	  42.742	0.0896931	 5.51907	0.0654812	 3.17971	0.663093	 3.32974	 98.3458	 4.41072	 354.581	 3095.63	  180779
0.416667	 0.59281	 2.38289	  42.742	0.0897836	 5.53964	0.0655234	 3.18188	0.663996	 3.32962	 98.3407	  4.4115	 354.411	  3095.7	  180961
0.420139	0.592519	  2.3895	  42.742	0.0898738	 5.56011	0.0655649	 3.18395	0.664866	 3.32946	 98.3356	 4.41228	 354.242	 3095.78	  181142
0.423611	0.592228	 2.39614	  42.742	0.0899637	  5.5805	0.0656055	 3.18594	0.665705	 3.32926	 98.3304	 4.41306	 354.073	 3095.85	  181322
0.427083	0.591939	 2.40281	  42.742	0.0900532	 5.60079	0.0656454	 3.18784	0.666514	 3.32902	 98.3253	 4.41384	 353.904	 3095.92	  181502
0.430556	 0.59165	  2.4095	  42.742	0.0901423	   5.621	0.0656844	 3.18966	0.667291	 3.32875	 98.3202	 4.41462	 353.735	    3096	  181681
0.434028	0.591362	 2.41622	  42.742	0.0902311	 5.64111	0.0657228	 3.19139	 0.66804	 3.32844	 98.3151	  4.4154	 353.567	 3096.07	  181859
  0.4375	0.591075	 2.42296	  42.742	0.0903195	 5.66113	0.0657603	 3.19305	0.668759	  3.3281	   98.31	 4.41618	 353.399	 3096.14	  182036
0.440972	0.590789	 2.42973	  42.742	0.0904075	 5.68106	0.0657971	 3.19462	0.669449	 3.32773	 98.3049	 4.41695	 353.231	 3096.21	  182213
0.444444	0.590504	 2.43653	  42.742	0.0904951	 5.70089	0.0658332	 3.19612	0.670112	 3.32732	 98.2998	 4.41773	 353.063	 3096.28	  182388
0.447917	0.590219	 2.44334	  42.742	0.0905824	 5.72064	0.0658686	 3.19755	0.670747	 3.32689	 98.2947	  4.4185	 352.896	 3096.36	  182563
0.451389	0.589935	 2.45018	  42.742	0.0906692	  5.7403	0.0659032	  3.1989	0.671356	 3.32642	 98.2897	 4.41928	  352.73	 3096.43	  182738
0.454861	0.589651	 2.45703	  42.742	0.0907557	 5.75987	0.0659372	 3.20018	0.671939	 3.32593	 98.2846	 4.42005	 352.563	  3096.5	  182911
0.458333	0.589369	 2.46391	  42.742	0.0908417	 5.77935	0.0659706	 3.20139	0.672496	 3.32541	 98.2796	 4.42083	 352.397	 3096.57	  183084
0.461806	0.589087	 2.47081	  42.742	0.0909273	 5.79873	0.0660032	 3.20254	0.673028	 3.32486	 98.2745	  4.4216	 352.231	 3096.64	  183255
0.465278	0.588805	 2.47772	  42.742	0.0910126	 5.81803	0.0660352	 3.20361	0.673535	 3.32429	 98.2695	 4.42238	 352.065	 3096.71	  183426
 0.46875	0.588525	 2.48466	  42.742	0.0910974	 5.83724	0.0660666	 3.20463	0.674019	 3.32369	 98.2645	 4.42315	   351.9	 3096.78	  183596
0.472222	0.588244	  2.4916	  42.742	0.0911818	 5.85636	0.0660973	 3.20558	0.674479	 3.32307	 98.2594	 4.42392	 351.735	 3096.85	  183766
0.475694	0.587965	 2.49857	  42.742	0.0912658	 5.87539	0.0661274	 3.20647	0.674916	 3.32243	 98.2544	 4.42469	  351.57	 3096.93	  183934
0.479167	0.587686	 2.50555	  42.742	0.0913494	 5.89434	0.066157	  3.2073	0.675331	 3.32176	 98.2494	 4.42546	 351.405	    3097	  184102
0.482639	0.587407	 2.51255	  42.742	0.0914325	 5.91319	0.0661859	 3.20807	0.675723	 3.32107	 98.2444	 4.42624	 351.241	 3097.07	  184269
0.486111	0.587129	 2.51956	  42.742	0.0915152	 5.93196	0.0662142	 3.20879	0.676095	 3.32036	 98.2395	 4.42701	 351.077	 3097.14	  184435
0.489583	0.586852	 2.52659	  42.742	0.0915976	 5.95064	0.066242	 3.20944	0.676444	 3.31963	 98.2345	 4.42778	 350.914	 3097.21	  184600
0.493056	0.586575	 2.53363	  42.742	0.0916794	 5.96923	0.0662692	 3.21005	0.676774	 3.31888	 98.2295	 4.42855	  350.75	 3097.28	  184764
