#.t	.Aer_Anox_ZP.C(S_A)	.Aer_Anox_ZP.C(S_F)	.Aer_Anox_ZP.C(S_I)	.Aer_Anox_ZP.C(S_N2O)	.Aer_Anox_ZP.C(S_NH)	.Aer_Anox_ZP.C(S_NO)	.Aer_Anox_ZP.C(S_NO2)	.Aer_Anox_ZP.C(S_NO3)	.Aer_Anox_ZP.C(S_O)	.Aer_Anox_ZP.C(X_BA1)	.Aer_Anox_ZP.C(X_BA2)	.Aer_Anox_ZP.C(X_H)	.Aer_Anox_ZP.C(X_TSS)	.Aer_Anox_ZP.FluxN2O_gas
#d	g/m3	g/m3	g/m3	g/m3	g/m3	g/m3	g/m3	g/m3	g/m3	g/m3	g/m3	g/m3	g/m3	g/d
       0	0.449869	 4.21568	  42.742	0.0460128	  2.3963	0.0565285	0.492947	0.0173533	 1.80465	 98.8969	 4.30192	 376.727	 3082.91	 92803.7
0.00347222	0.502984	 4.10977	  42.742	0.164281	 2.27572	0.103132	0.486716	0.0467551	 1.68163	 98.9136	 4.30388	 376.542	 3083.01	  331335
0.00694444	0.539551	 4.02055	  42.742	0.219679	 2.18463	 0.10856	0.522747	0.0721753	 1.60813	 98.9263	 4.30555	 376.357	 3083.13	  443062
0.0104167	0.560079	 3.88521	  42.742	0.248841	 2.10729	0.108461	0.536811	0.0955459	 1.58129	 98.9368	 4.30712	 376.194	  3083.3	  501875
0.0138889	0.571836	 3.74654	  42.742	0.263683	  2.0391	0.108629	0.547973	0.117021	 1.57595	  98.946	 4.30859	 376.035	 3083.48	  531807
0.0173611	0.578648	 3.61162	  42.742	0.273399	 1.97617	0.109452	0.558386	0.137245	 1.57961	 98.9542	 4.30999	 375.877	 3083.68	  551398
0.0208333	0.582352	 3.48142	  42.742	0.281717	 1.91644	0.110635	0.568417	 0.15651	 1.58733	  98.962	 4.31134	 375.718	 3083.87	  568171
0.0243056	0.584055	 3.35725	  42.742	0.290024	 1.85922	0.112019	 0.57855	0.174975	 1.59721	 98.9693	 4.31266	 375.558	 3084.07	  584922
0.0277778	0.584492	  3.2394	  42.742	0.298778	 1.80409	0.113526	0.588885	0.192777	 1.60839	 98.9763	 4.31396	 375.397	 3084.27	  602574
 0.03125	0.584141	 3.12796	  42.742	0.308097	 1.75084	0.115124	0.599417	0.210018	 1.62045	 98.9829	 4.31523	 375.234	 3084.46	  621366
0.0347222	0.583327	 3.02285	  42.742	0.317978	 1.69928	0.116797	0.610109	0.226785	 1.63317	 98.9892	 4.31648	 375.069	 3084.65	  641291
0.0381944	0.582267	 2.92394	  42.742	0.328378	 1.64931	0.118538	0.620909	0.243149	 1.64641	 98.9952	 4.31771	 374.903	 3084.84	  662261
0.0416667	 0.58111	  2.8312	  42.742	 0.33925	 1.60087	0.120345	0.631758	0.259165	  1.6601	 99.0009	 4.31894	 374.735	 3085.02	  684184
0.0451389	0.579955	 2.74432	  42.742	0.350522	 1.55385	0.122215	0.642598	0.274891	 1.67418	 99.0063	 4.32016	 374.565	  3085.2	  706912
0.0486111	0.578865	 2.66314	  42.742	0.362136	  1.5082	0.124146	0.653371	 0.29037	 1.68862	 99.0115	 4.32137	 374.394	 3085.38	  730332
0.0520833	 0.57788	 2.58747	  42.742	0.374032	 1.46388	0.126138	0.664022	 0.30564	 1.70338	 99.0163	 4.32258	 374.221	 3085.55	  754318
0.0555556	0.577021	 2.51707	  42.742	0.386147	 1.42084	0.128189	0.674501	0.320733	 1.71845	  99.021	 4.32378	 374.046	 3085.72	  778746
0.0590278	0.576296	 2.45165	  42.742	0.398419	 1.37904	0.130296	0.684761	0.335681	 1.73381	 99.0253	 4.32499	  373.87	 3085.88	  803491
  0.0625	0.575709	  2.3911	  42.742	0.410792	 1.33849	0.132459	0.694751	0.350504	 1.74946	 99.0295	  4.3262	 373.692	 3086.04	  828437
0.0659722	0.575255	  2.3351	  42.742	0.423204	 1.29912	0.134673	0.704434	0.365226	 1.76538	 99.0333	 4.32742	 373.513	  3086.2	  853463
0.0694444	0.574926	 2.28342	  42.742	0.435602	 1.26092	0.136936	0.713772	0.379865	 1.78155	  99.037	 4.32864	 373.333	 3086.36	  878458
0.0729167	0.574715	 2.23583	  42.742	 0.44793	 1.22386	0.139244	0.722729	0.394437	 1.79798	 99.0404	 4.32986	 373.152	 3086.51	  903315
0.0763889	0.574613	 2.19219	  42.742	0.460138	 1.18796	0.141592	0.731265	0.408954	 1.81466	 99.0435	  4.3311	 372.969	 3086.66	  927927
0.0798611	0.574611	  2.1522	  42.742	0.472179	 1.15318	0.143974	0.739358	0.423429	 1.83158	 99.0465	 4.33235	 372.785	  3086.8	  952202
0.0833333	0.574698	 2.11568	  42.742	 0.48401	  1.1195	0.146385	0.746981	 0.43787	 1.84873	 99.0492	  4.3336	 372.601	 3086.95	  976053
0.0868055	0.574866	 2.08242	  42.742	0.495592	 1.08692	0.148818	0.754113	0.452285	  1.8661	 99.0517	 4.33487	 372.415	 3087.09	  999401
0.0902778	0.575106	 2.05222	  42.742	 0.50689	  1.0554	0.151267	0.760734	0.466682	 1.88368	  99.054	 4.33615	 372.228	 3087.23	1.02218e+06
 0.09375	0.575413	 2.02495	  42.742	0.517869	 1.02497	0.153725	 0.76682	0.481064	 1.90147	 99.0561	 4.33744	 372.041	 3087.36	1.04431e+06
0.0972222	0.575778	 2.00043	  42.742	0.528501	0.995597	0.156184	0.772359	0.495435	 1.91944	 99.0579	 4.33875	 371.853	  3087.5	1.06574e+06
0.100694	0.576194	 1.97844	  42.742	0.538769	0.967255	0.158636	0.777348	0.509799	 1.93758	 99.0596	 4.34007	 371.664	 3087.63	1.08644e+06
0.104167	0.576657	 1.95888	  42.742	0.548649	0.939947	0.161075	0.781773	0.524156	 1.95589	  99.061	  4.3414	 371.475	 3087.76	1.10635e+06
0.107639	0.577158	 1.94155	  42.742	 0.55813	0.913643	0.163493	0.785636	0.538507	 1.97433	 99.0623	 4.34275	 371.285	 3087.88	1.12546e+06
0.111111	0.577694	 1.92634	  42.742	0.567199	0.888337	0.165881	0.788932	0.552852	  1.9929	 99.0634	 4.34412	 371.095	 3088.01	1.14374e+06
0.114583	0.578259	 1.91311	  42.742	0.575848	0.864009	0.168235	0.791664	 0.56719	 2.01156	 99.0642	 4.34549	 370.904	 3088.13	1.16117e+06
0.118056	0.578848	 1.90174	  42.742	0.584066	0.840651	0.170544	0.793829	0.581519	 2.03031	 99.0649	 4.34689	 370.713	 3088.26	1.17773e+06
0.121528	0.579458	 1.89214	  42.742	0.591852	0.818248	0.172804	0.795435	0.595836	 2.04912	 99.0655	  4.3483	 370.522	 3088.38	1.19342e+06
   0.125	0.580082	 1.88414	  42.742	0.599212	0.796761	0.175009	  0.7965	0.610137	 2.06796	 99.0658	 4.34972	 370.331	  3088.5	1.20825e+06
0.128472	0.580719	 1.87767	  42.742	0.606143	0.776187	0.177151	0.797026	 0.62442	  2.0868	  99.066	 4.35116	 370.139	 3088.61	1.22221e+06
0.131944	0.581363	 1.87261	  42.742	0.612654	0.756489	0.179227	0.797037	0.638679	 2.10563	  99.066	 4.35261	 369.947	 3088.73	1.23533e+06
0.135417	0.582011	 1.86888	  42.742	0.618748	0.737656	0.181231	0.796541	 0.65291	 2.12441	 99.0658	 4.35408	 369.756	 3088.84	1.24761e+06
0.138889	0.582659	 1.86639	  42.742	0.624433	0.719662	0.183159	0.795558	0.667108	 2.14312	 99.0655	 4.35557	 369.564	 3088.96	1.25906e+06
0.142361	0.583306	 1.86505	  42.742	0.629717	0.702485	0.185007	0.794105	0.681266	 2.16173	 99.0651	 4.35706	 369.372	 3089.07	1.2697e+06
0.145833	0.583947	 1.86479	  42.742	0.634614	0.686093	0.186772	0.792207	0.695378	 2.18022	 99.0645	 4.35857	  369.18	 3089.18	1.27957e+06
0.149306	0.584581	 1.86552	  42.742	0.639131	 0.67047	0.188451	0.789881	 0.70944	 2.19856	 99.0638	  4.3601	 368.988	 3089.29	1.28866e+06
0.152778	0.585205	 1.86719	  42.742	0.643282	0.655586	0.190042	0.787151	0.723443	 2.21672	 99.0629	 4.36164	 368.796	  3089.4	1.29702e+06
 0.15625	0.585817	 1.86972	  42.742	0.647078	0.641414	0.191543	0.784042	0.737383	 2.23467	  99.062	 4.36319	 368.605	 3089.51	1.30466e+06
0.159722	0.586415	 1.87306	  42.742	0.650531	0.627933	0.192952	0.780573	0.751251	  2.2524	 99.0609	 4.36475	 368.413	 3089.61	1.31161e+06
0.163194	0.586997	 1.87714	  42.742	0.653658	0.615109	 0.19427	0.776775	0.765042	 2.26989	 99.0597	 4.36632	 368.222	 3089.72	1.31791e+06
0.166667	0.587563	 1.88191	  42.742	 0.65647	0.602922	0.195496	0.772667	0.778748	 2.28711	 99.0583	 4.36791	 368.031	 3089.82	1.32356e+06
0.170139	0.588111	 1.88732	  42.742	0.658981	0.591342	0.196631	0.768276	0.792364	 2.30404	 99.0569	 4.36951	  367.84	 3089.93	1.32861e+06
0.173611	 0.58864	 1.89333	  42.742	0.661202	0.580349	0.197673	0.763624	0.805882	 2.32067	 99.0554	 4.37112	 367.649	 3090.03	1.33308e+06
0.177083	0.589149	 1.89989	  42.742	0.663152	0.569909	0.198626	0.758737	0.819297	 2.33698	 99.0538	 4.37273	 367.459	 3090.13	1.337e+06
0.180556	0.589638	 1.90696	  42.742	0.664839	0.560003	 0.19949	0.753636	0.832602	 2.35296	 99.0521	 4.37436	 367.269	 3090.24	1.34039e+06
0.184028	0.590107	 1.91449	  42.742	0.666279	0.550607	0.200266	0.748344	0.845791	 2.36858	 99.0503	   4.376	 367.079	 3090.34	1.34328e+06
  0.1875	0.590554	 1.92246	  42.742	0.667483	0.541697	0.200955	0.742883	0.858858	 2.38385	 99.0484	 4.37764	 366.889	 3090.44	1.3457e+06
0.190972	0.590981	 1.93083	  42.742	0.668468	0.533242	0.201563	0.737276	0.871799	 2.39876	 99.0465	  4.3793	   366.7	 3090.54	1.34767e+06
0.194444	0.591386	 1.93956	  42.742	0.669241	0.525231	0.202088	 0.73154	0.884607	  2.4133	 99.0444	 4.38096	 366.511	 3090.64	1.34922e+06
0.197917	 0.59177	 1.94863	  42.742	0.669818	0.517633	0.202535	0.725698	0.897278	 2.42746	 99.0424	 4.38263	 366.322	 3090.74	1.35037e+06
0.201389	0.592134	 1.95802	  42.742	0.670208	0.510434	0.202905	0.719765	0.909807	 2.44123	 99.0402	  4.3843	 366.134	 3090.84	1.35115e+06
0.204861	0.592476	 1.96768	  42.742	0.670424	0.503609	0.203202	0.713761	0.922189	 2.45462	  99.038	 4.38599	 365.946	 3090.93	1.35157e+06
0.208333	0.592799	 1.97761	  42.742	0.670475	0.497142	0.203428	0.707701	 0.93442	 2.46762	 99.0357	 4.38767	 365.758	 3091.03	1.35166e+06
0.211806	0.593102	 1.98778	  42.742	0.670375	0.491011	0.203587	0.701601	0.946498	 2.48024	 99.0334	 4.38937	 365.571	 3091.13	1.35145e+06
0.215278	0.593385	 1.99816	  42.742	 0.67013	0.485202	0.203681	0.695476	0.958417	 2.49248	 99.0311	 4.39107	 365.384	 3091.22	1.35095e+06
 0.21875	 0.59365	 2.00874	  42.742	0.669753	0.479694	0.203714	 0.68934	0.970176	 2.50433	 99.0287	 4.39278	 365.197	 3091.32	1.35017e+06
0.222222	0.593896	 2.01951	  42.742	0.669252	0.474473	0.203689	0.683204	0.981771	 2.51581	 99.0262	 4.39449	 365.011	 3091.41	1.34915e+06
0.225694	0.594124	 2.03043	  42.742	0.668635	0.469523	0.203609	0.677081	  0.9932	 2.52691	 99.0237	  4.3962	 364.825	 3091.51	1.3479e+06
0.229167	0.594335	  2.0415	  42.742	0.667911	0.464832	0.203476	0.670981	 1.00446	 2.53765	 99.0212	 4.39792	  364.64	  3091.6	1.34643e+06
0.232639	0.594529	 2.05271	  42.742	0.667089	0.460382	0.203295	0.664914	 1.01555	 2.54802	 99.0186	 4.39965	 364.455	  3091.7	1.34476e+06
0.236111	0.594707	 2.06404	  42.742	0.666176	0.456164	0.203067	0.658889	 1.02646	 2.55804	  99.016	 4.40137	  364.27	 3091.79	1.34291e+06
0.239583	0.594869	 2.07547	  42.742	0.665178	0.452162	0.202796	0.652915	 1.03721	 2.56771	 99.0134	  4.4031	 364.086	 3091.89	1.34089e+06
0.243056	0.595016	   2.087	  42.742	0.664104	0.448366	0.202484	0.646998	 1.04778	 2.57703	 99.0107	 4.40484	 363.902	 3091.98	1.33871e+06
0.246528	0.595149	 2.09862	  42.742	 0.66296	0.444765	0.202136	0.641146	 1.05817	 2.58603	  99.008	 4.40658	 363.718	 3092.07	1.33639e+06
    0.25	0.595268	 2.11031	  42.742	 0.66175	0.441349	0.201752	0.635365	 1.06838	 2.59469	 99.0053	 4.40832	 363.535	 3092.16	1.33394e+06
0.253472	0.595374	 2.12206	  42.742	0.660483	0.438106	0.201336	0.629658	 1.07842	 2.60304	 99.0026	 4.41006	 363.352	 3092.26	1.33138e+06
0.256944	0.595467	 2.13387	  42.742	0.659163	0.435028	0.200891	0.624033	 1.08828	 2.61108	 98.9998	 4.41181	  363.17	 3092.35	1.32871e+06
0.260417	0.595548	 2.14573	  42.742	0.657794	0.432108	0.200418	0.618493	 1.09796	 2.61882	  98.997	 4.41356	 362.988	 3092.44	1.32594e+06
0.263889	0.595617	 2.15763	  42.742	0.656384	0.429334	0.199921	 0.61304	 1.10747	 2.62626	 98.9942	 4.41531	 362.806	 3092.53	1.32309e+06
0.267361	0.595675	 2.16956	  42.742	0.654934	0.426701	0.199401	0.607679	  1.1168	 2.63342	 98.9914	 4.41706	 362.625	 3092.62	1.32015e+06
0.270833	0.595723	 2.18152	  42.742	0.653451	0.424201	 0.19886	0.602412	 1.12595	  2.6403	 98.9886	 4.41882	 362.444	 3092.71	1.31715e+06
0.274306	 0.59576	 2.19349	  42.742	0.651937	0.421826	0.198302	 0.59724	 1.13492	 2.64692	 98.9857	 4.42058	 362.263	  3092.8	1.31409e+06
0.277778	0.595787	 2.20549	  42.742	0.650398	 0.41957	0.197727	0.592166	 1.14372	 2.65328	 98.9828	 4.42234	 362.083	 3092.89	1.31098e+06
 0.28125	0.595805	 2.21749	  42.742	0.648836	0.417428	0.197137	0.587193	 1.15235	 2.65939	   98.98	  4.4241	 361.904	 3092.98	1.30782e+06
0.284722	0.595815	 2.22949	  42.742	0.647255	0.415392	0.196534	0.582318	  1.1608	 2.66525	 98.9771	 4.42586	 361.724	 3093.07	1.30463e+06
0.288194	0.595816	  2.2415	  42.742	0.645658	0.413458	 0.19592	0.577545	 1.16908	 2.67088	 98.9742	 4.42763	 361.545	 3093.16	1.3014e+06
0.291667	0.595808	  2.2535	  42.742	0.644047	0.411621	0.195296	0.572874	 1.17719	 2.67628	 98.9712	  4.4294	 361.367	 3093.25	1.29814e+06
0.295139	0.595793	 2.26549	  42.742	0.642426	0.409875	0.194664	0.568303	 1.18514	 2.68146	 98.9683	 4.43116	 361.188	 3093.34	1.29486e+06
0.298611	0.595771	 2.27746	  42.742	0.640797	0.408216	0.194026	0.563833	 1.19291	 2.68643	 98.9654	 4.43293	  361.01	 3093.43	1.29157e+06
0.302083	0.595742	 2.28942	  42.742	0.639162	 0.40664	0.193381	0.559465	 1.20052	 2.69119	 98.9624	  4.4347	 360.833	 3093.52	1.28826e+06
0.305556	0.595706	 2.30136	  42.742	0.637524	0.405141	0.192732	0.555197	 1.20796	 2.69576	 98.9594	 4.43648	 360.656	 3093.61	1.28495e+06
0.309028	0.595664	 2.31328	  42.742	0.635884	0.403718	 0.19208	0.551029	 1.21525	 2.70014	 98.9565	 4.43825	 360.479	  3093.7	1.28164e+06
  0.3125	0.595616	 2.32517	  42.742	0.634244	0.402366	0.191425	 0.54696	 1.22237	 2.70433	 98.9535	 4.44002	 360.303	 3093.78	1.27832e+06
0.315972	0.595561	 2.33704	  42.742	0.632606	0.401082	0.190769	0.542989	 1.22933	 2.70834	 98.9505	  4.4418	 360.127	 3093.87	1.27501e+06
0.319444	0.595502	 2.34887	  42.742	0.630972	0.399862	0.190112	0.539115	 1.23613	 2.71218	 98.9475	 4.44358	 359.951	 3093.96	1.27171e+06
0.322917	0.595437	 2.36067	  42.742	0.629343	0.398703	0.189455	0.535335	 1.24278	 2.71586	 98.9445	 4.44535	 359.776	 3094.05	1.26842e+06
0.326389	0.595367	 2.37243	  42.742	 0.62772	0.397602	0.188799	0.531651	 1.24928	 2.71937	 98.9415	 4.44713	 359.601	 3094.14	1.26514e+06
0.329861	0.595292	 2.38416	  42.742	0.626104	0.396558	0.188145	 0.52806	 1.25562	 2.72273	 98.9385	 4.44891	 359.426	 3094.22	1.26187e+06
0.333333	0.595213	 2.39585	  42.742	0.624498	0.395565	0.187493	0.524559	 1.26182	 2.72594	 98.9355	 4.45069	 359.252	 3094.31	1.25863e+06
0.336806	0.595129	  2.4075	  42.742	  0.6229	0.394623	0.186844	0.521147	 1.26787	 2.72901	 98.9325	 4.45247	 359.078	  3094.4	1.2554e+06
0.340278	0.595042	 2.41911	  42.742	0.621313	 0.39373	0.186199	0.517823	 1.27378	 2.73194	 98.9294	 4.45425	 358.905	 3094.48	1.25219e+06
 0.34375	 0.59495	 2.43067	  42.742	0.619737	0.392882	0.185556	0.514585	 1.27954	 2.73474	 98.9264	 4.45604	 358.732	 3094.57	1.24901e+06
0.347222	0.594854	 2.44219	  42.742	0.618174	0.392077	0.184919	0.511431	 1.28517	 2.73741	 98.9234	 4.45782	 358.559	 3094.65	1.24585e+06
0.350694	0.594755	 2.45366	  42.742	0.616622	0.391315	0.184285	 0.50836	 1.29065	 2.73996	 98.9203	 4.45961	 358.387	 3094.74	1.24271e+06
0.354167	0.594652	 2.46509	  42.742	0.615084	0.390592	0.183656	 0.50537	   1.296	 2.74238	 98.9173	 4.46139	 358.215	 3094.83	1.2396e+06
0.357639	0.594547	 2.47647	  42.742	 0.61356	0.389908	0.183033	0.502458	 1.30122	  2.7447	 98.9143	 4.46318	 358.043	 3094.91	1.23652e+06
0.361111	0.594437	  2.4878	  42.742	 0.61205	 0.38926	0.182415	0.499624	 1.30631	  2.7469	 98.9112	 4.46496	 357.871	    3095	1.23347e+06
0.364583	0.594325	 2.49908	  42.742	0.610554	0.388647	0.181802	0.496865	 1.31127	 2.74899	 98.9082	 4.46675	   357.7	 3095.08	1.23045e+06
0.368056	 0.59421	 2.51031	  42.742	0.609073	0.388067	0.181196	 0.49418	  1.3161	 2.75098	 98.9051	 4.46854	  357.53	 3095.17	1.22745e+06
0.371528	0.594093	 2.52149	  42.742	0.607606	0.387518	0.180595	0.491565	  1.3208	 2.75287	 98.9021	 4.47033	 357.359	 3095.25	1.22449e+06
   0.375	0.593972	 2.53263	  42.742	0.606155	   0.387	    0.18	0.489019	 1.32539	 2.75467	  98.899	 4.47212	 357.189	 3095.34	1.22156e+06
0.378472	0.593849	 2.54371	  42.742	0.604719	 0.38651	0.179411	0.486542	 1.32986	 2.75638	 98.8959	  4.4739	  357.02	 3095.42	1.21865e+06
0.381944	0.593724	 2.55474	  42.742	0.603299	0.386049	0.178829	 0.48413	  1.3342	 2.75799	 98.8929	  4.4757	  356.85	 3095.51	1.21578e+06
0.385417	0.593596	 2.56572	  42.742	0.601894	0.385614	0.178253	0.481783	 1.33844	 2.75952	 98.8898	 4.47749	 356.681	 3095.59	1.21294e+06
0.388889	0.593467	 2.57665	  42.742	0.600505	0.385204	0.177683	0.479498	 1.34256	 2.76097	 98.8868	 4.47928	 356.513	 3095.68	1.21014e+06
0.392361	0.593335	 2.58752	  42.742	0.599131	0.384819	 0.17712	0.477273	 1.34656	 2.76234	 98.8837	 4.48107	 356.344	 3095.76	1.20736e+06
0.395833	0.593201	 2.59835	  42.742	0.597773	0.384457	0.176563	0.475107	 1.35046	 2.76364	 98.8806	 4.48286	 356.176	 3095.84	1.20462e+06
0.399306	0.593065	 2.60912	  42.742	0.596431	0.384117	0.176012	0.472999	 1.35425	 2.76485	 98.8776	 4.48465	 356.009	 3095.93	1.2019e+06
0.402778	0.592927	 2.61985	  42.742	0.595104	0.383799	0.175468	0.470945	 1.35794	   2.766	 98.8745	 4.48645	 355.841	 3096.01	1.19922e+06
 0.40625	0.592788	 2.63052	  42.742	0.593792	0.383501	0.174931	0.468946	 1.36153	 2.76708	 98.8714	 4.48824	 355.674	 3096.09	1.19657e+06
0.409722	0.592646	 2.64114	  42.742	0.592495	0.383222	0.174399	0.466998	 1.36501	  2.7681	 98.8684	 4.49004	 355.508	 3096.18	1.19395e+06
0.413194	0.592504	 2.65171	  42.742	0.591214	0.382962	0.173874	  0.4651	  1.3684	 2.76905	 98.8653	 4.49183	 355.341	 3096.26	1.19136e+06
0.416667	0.592359	 2.66224	  42.742	0.589947	0.382721	0.173356	0.463252	 1.37169	 2.76994	 98.8622	 4.49363	 355.175	 3096.34	1.1888e+06
0.420139	0.592213	 2.67271	  42.742	0.588695	0.382496	0.172843	0.461451	 1.37489	 2.77077	 98.8591	 4.49542	  355.01	 3096.43	1.18627e+06
0.423611	0.592066	 2.68313	  42.742	0.587458	0.382288	0.172337	0.459696	 1.37799	 2.77154	 98.8561	 4.49722	 354.844	 3096.51	1.18377e+06
0.427083	0.591917	  2.6935	  42.742	0.586235	0.382096	0.171836	0.457985	   1.381	 2.77226	  98.853	 4.49902	 354.679	 3096.59	1.18129e+06
0.430556	0.591767	 2.70383	  42.742	0.585026	0.381918	0.171342	0.456317	 1.38393	 2.77293	 98.8499	 4.50081	 354.514	 3096.67	1.17885e+06
0.434028	0.591616	  2.7141	  42.742	0.583831	0.381756	0.170853	0.454691	 1.38676	 2.77354	 98.8469	 4.50261	  354.35	 3096.76	1.17644e+06
  0.4375	0.591464	 2.72433	  42.742	 0.58265	0.381607	0.170371	0.453105	 1.38952	 2.77411	 98.8438	 4.50441	 354.186	 3096.84	1.17405e+06
0.440972	 0.59131	 2.73451	  42.742	0.581482	0.381471	0.169893	0.451558	 1.39219	 2.77463	 98.8407	 4.50621	 354.022	 3096.92	1.17169e+06
0.444444	0.591155	 2.74465	  42.742	0.580327	0.381349	0.169422	0.450048	 1.39478	  2.7751	 98.8377	 4.50801	 353.858	    3097	1.16935e+06
0.447917	   0.591	 2.75474	  42.742	0.579186	0.381238	0.168956	0.448574	 1.39729	 2.77553	 98.8346	 4.50981	 353.695	 3097.08	1.16704e+06
0.451389	0.590843	 2.76478	  42.742	0.578057	 0.38114	0.168496	0.447136	 1.39972	 2.77592	 98.8315	 4.51161	 353.532	 3097.17	1.16476e+06
0.454861	0.590685	 2.77478	  42.742	 0.57694	0.381052	0.168041	0.445732	 1.40208	 2.77627	 98.8284	 4.51341	  353.37	 3097.25	1.1625e+06
0.458333	0.590527	 2.78474	  42.742	0.575836	0.380976	0.167591	 0.44436	 1.40436	 2.77658	 98.8254	 4.51521	 353.207	 3097.33	1.16027e+06
0.461806	0.590367	 2.79465	  42.742	0.574743	 0.38091	0.167146	0.443019	 1.40657	 2.77685	 98.8223	 4.51701	 353.045	 3097.41	1.15806e+06
0.465278	0.590207	 2.80452	  42.742	0.573662	0.380854	0.166707	 0.44171	 1.40871	 2.77708	 98.8192	 4.51881	 352.884	 3097.49	1.15588e+06
 0.46875	0.590046	 2.81435	  42.742	0.572593	0.380808	0.166272	0.440429	 1.41078	 2.77728	 98.8162	 4.52062	 352.722	 3097.57	1.15372e+06
0.472222	0.589884	 2.82413	  42.742	0.571534	 0.38077	0.165842	0.439177	 1.41278	 2.77744	 98.8131	 4.52242	 352.561	 3097.65	1.15158e+06
0.475694	0.589721	 2.83388	  42.742	0.570487	0.380742	0.165417	0.437953	 1.41472	 2.77758	 98.8101	 4.52422	   352.4	 3097.73	1.14946e+06
0.479167	0.589558	 2.84359	  42.742	 0.56945	0.380722	0.164996	0.436755	 1.41659	 2.77768	  98.807	 4.52602	  352.24	 3097.81	1.14736e+06
0.482639	0.589394	 2.85325	  42.742	0.568423	 0.38071	 0.16458	0.435582	  1.4184	 2.77775	 98.8039	 4.52783	  352.08	 3097.89	1.14529e+06
0.486111	0.589229	 2.86288	  42.742	0.567407	0.380706	0.164169	0.434434	 1.42014	 2.77779	 98.8009	 4.52963	  351.92	 3097.97	1.14323e+06
0.489583	0.589064	 2.87247	  42.742	  0.5664	 0.38071	0.163762	 0.43331	 1.42183	  2.7778	 98.7978	 4.53144	  351.76	 3098.05	1.14119e+06
