#.t	.Aer_Anox_ZP.C(S_A)	.Aer_Anox_ZP.C(S_F)	.Aer_Anox_ZP.C(S_I)	.Aer_Anox_ZP.C(S_N2O)	.Aer_Anox_ZP.C(S_NH)	.Aer_Anox_ZP.C(S_NO)	.Aer_Anox_ZP.C(S_NO2)	.Aer_Anox_ZP.C(S_NO3)	.Aer_Anox_ZP.C(S_O)	.Aer_Anox_ZP.C(X_BA1)	.Aer_Anox_ZP.C(X_BA2)	.Aer_Anox_ZP.C(X_H)	.Aer_Anox_ZP.C(X_TSS)	.Aer_Anox_ZP.FluxN2O_gas
#d	g/m3	g/m3	g/m3	g/m3	g/m3	g/m3	g/m3	g/m3	g/m3	g/m3	g/m3	g/m3	g/m3	g/d
       0	0.449869	 4.21568	  42.742	0.0460128	  2.3963	0.0565285	0.492947	0.0173533	 1.80465	 98.8969	 4.30192	 376.727	 3082.91	 92803.7
0.00347222	0.502988	 4.10955	  42.742	0.169265	 2.26815	0.106531	0.484757	0.0467149	  1.6682	 98.9147	 4.30388	 376.542	 3083.01	  341388
0.00694444	0.539279	   4.019	  42.742	0.227947	 2.17202	 0.11252	0.519124	0.0719559	 1.58901	 98.9282	 4.30553	 376.358	 3083.13	  459739
0.0104167	0.559379	 3.88159	  42.742	0.258696	 2.09095	  0.1124	0.531107	0.0950384	 1.56044	 98.9392	 4.30707	 376.196	  3083.3	  521750
0.0138889	0.570798	 3.74112	  42.742	0.274091	 2.01981	0.112468	0.540398	0.116224	 1.55494	 98.9488	 4.30851	 376.038	 3083.49	  552796
0.0173611	0.577392	 3.60468	  42.742	0.283959	 1.95428	0.113185	0.549142	0.136176	 1.55893	 98.9574	 4.30988	 375.881	 3083.68	  572697
0.0208333	0.580976	 3.47328	  42.742	0.292281	 1.89217	 0.11426	0.557677	0.155191	  1.5672	 98.9655	 4.31121	 375.723	 3083.88	  589476
0.0243056	 0.58262	 3.34825	  42.742	0.300546	 1.83278	0.115535	0.566468	0.173424	 1.57775	 98.9731	 4.31251	 375.564	 3084.07	  606143
0.0277778	0.583056	 3.22979	  42.742	0.309254	 1.77567	 0.11693	0.575585	0.191017	 1.58967	 98.9803	 4.31378	 375.403	 3084.27	  623703
 0.03125	0.582738	 3.11797	  42.742	 0.31854	 1.72059	0.118414	0.585003	0.208072	 1.60254	 98.9872	 4.31503	 375.241	 3084.46	  642427
0.0347222	0.581982	 3.01266	  42.742	0.328406	 1.66738	0.119971	0.594664	0.224675	 1.61612	 98.9937	 4.31626	 375.077	 3084.66	  662321
0.0381944	0.580997	 2.91375	  42.742	0.338811	 1.61593	0.121594	0.604503	0.240894	 1.63028	 98.9999	 4.31748	 374.911	 3084.84	  683301
0.0416667	0.579927	 2.82114	  42.742	0.349702	 1.56615	0.123283	 0.61445	0.256788	 1.64494	 99.0058	 4.31869	 374.743	 3085.03	  705262
0.0451389	0.578868	 2.73446	  42.742	0.361003	 1.51794	0.125032	0.624436	0.272414	 1.66003	 99.0114	 4.31989	 374.574	 3085.21	  728050
0.0486111	0.577882	 2.65369	  42.742	0.372661	 1.47127	0.126843	0.634395	 0.28781	 1.67552	 99.0167	 4.32109	 374.402	 3085.38	  751556
0.0520833	0.577003	 2.57843	  42.742	0.384599	 1.42606	0.128713	 0.64427	0.303018	 1.69136	 99.0216	 4.32229	 374.229	 3085.56	  775628
0.0555556	0.576252	 2.50848	  42.742	0.396756	 1.38226	0.130643	0.654003	0.318071	 1.70755	 99.0264	 4.32349	 374.055	 3085.72	  800140
0.0590278	0.575641	 2.44373	  42.742	0.409068	 1.33988	0.132631	 0.66354	0.332994	 1.72407	 99.0308	 4.32469	 373.879	 3085.89	  824965
  0.0625	0.575166	 2.38374	  42.742	0.421469	 1.29883	0.134674	0.672838	0.347814	 1.74089	  99.035	 4.32589	 373.701	 3086.05	  849968
0.0659722	0.574827	 2.32843	  42.742	0.433898	 1.25912	0.136773	0.681846	0.362549	 1.75801	 99.0389	  4.3271	 373.522	 3086.21	  875028
0.0694444	0.574613	 2.27748	  42.742	0.446295	 1.22071	0.138922	0.690528	 0.37722	 1.77541	 99.0425	 4.32832	 373.341	 3086.36	  900023
0.0729167	0.574516	 2.23063	  42.742	0.458605	 1.18356	0.141117	 0.69885	 0.39184	 1.79308	 99.0459	 4.32955	 373.159	 3086.52	  924842
0.0763889	0.574526	  2.1877	  42.742	0.470775	 1.14766	0.143356	0.706775	0.406422	   1.811	  99.049	 4.33078	 372.976	 3086.66	  949377
0.0798611	0.574634	 2.14848	  42.742	0.482756	   1.113	0.145632	0.714273	0.420976	 1.82917	 99.0519	 4.33203	 372.792	 3086.81	  973530
0.0833333	 0.57483	 2.11276	  42.742	0.494499	 1.07956	0.147941	0.721313	0.435511	 1.84757	 99.0546	 4.33329	 372.607	 3086.95	  997204
0.0868055	0.575103	 2.08031	  42.742	0.505969	  1.0473	0.150275	0.727881	0.450034	 1.86619	  99.057	 4.33456	 372.421	 3087.09	1.02033e+06
0.0902778	0.575446	 2.05092	  42.742	 0.51713	  1.0162	0.152627	0.733955	0.464551	   1.885	 99.0592	 4.33585	 372.234	 3087.23	1.04283e+06
 0.09375	0.575849	 2.02442	  42.742	0.527951	0.986259	0.154991	0.739519	0.479065	 1.90401	 99.0611	 4.33715	 372.046	 3087.37	1.06464e+06
0.0972222	0.576305	 2.00064	  42.742	0.538406	0.957446	0.157359	0.744559	0.493578	 1.92317	 99.0629	 4.33846	 371.857	  3087.5	1.08571e+06
0.100694	0.576808	 1.97944	  42.742	0.548467	0.929758	0.159724	0.749058	0.508092	 1.94249	 99.0644	 4.33979	 371.668	 3087.63	1.10599e+06
0.104167	 0.57735	 1.96062	  42.742	0.558123	0.903159	0.162076	0.753016	0.522608	 1.96193	 99.0657	 4.34113	 371.478	 3087.76	1.12545e+06
0.107639	0.577925	 1.94404	  42.742	0.567359	0.877626	0.164409	0.756431	0.537124	 1.98148	 99.0668	 4.34249	 371.288	 3087.89	1.14407e+06
0.111111	0.578529	 1.92955	  42.742	0.576166	0.853138	0.166715	0.759301	 0.55164	  2.0011	 99.0678	 4.34387	 371.097	 3088.02	1.16182e+06
0.114583	0.579154	 1.91703	  42.742	0.584539	0.829672	0.168987	0.761628	0.566152	 2.02078	 99.0685	 4.34526	 370.906	 3088.14	1.17869e+06
0.118056	0.579798	 1.90633	  42.742	0.592473	0.807203	0.171217	0.763418	0.580658	 2.04049	  99.069	 4.34666	 370.715	 3088.26	1.19468e+06
0.121528	0.580454	 1.89735	  42.742	0.599969	0.785709	0.173398	0.764677	0.595153	  2.0602	 99.0694	 4.34808	 370.523	 3088.38	1.20978e+06
   0.125	0.581119	 1.88996	  42.742	 0.60703	0.765158	0.175524	0.765418	0.609633	 2.07988	 99.0696	 4.34952	 370.331	  3088.5	1.22401e+06
0.128472	0.581789	 1.88408	  42.742	0.613657	0.745536	0.177589	0.765648	0.624093	 2.09951	 99.0696	 4.35097	 370.139	 3088.62	1.23736e+06
0.131944	0.582461	  1.8796	  42.742	0.619855	0.726814	0.179587	 0.76538	0.638527	 2.11906	 99.0694	 4.35244	 369.947	 3088.73	1.24985e+06
0.135417	 0.58313	 1.87641	  42.742	 0.62564	0.708951	0.181514	0.764639	 0.65293	 2.13849	 99.0691	 4.35392	 369.755	 3088.85	1.2615e+06
0.138889	0.583795	 1.87442	  42.742	0.631017	0.691926	0.183366	0.763439	0.667295	 2.15779	 99.0686	 4.35542	 369.562	 3088.96	1.27233e+06
0.142361	0.584452	 1.87356	  42.742	0.635996	0.675713	0.185137	0.761799	0.681616	 2.17693	  99.068	 4.35693	  369.37	 3089.08	1.28236e+06
0.145833	0.585099	 1.87374	  42.742	0.640592	0.660277	0.186826	0.759743	0.695885	 2.19587	 99.0673	 4.35845	 369.178	 3089.19	1.29162e+06
0.149306	0.585734	  1.8749	  42.742	0.644814	0.645594	0.188429	0.757289	0.710096	 2.21459	 99.0664	 4.35999	 368.986	  3089.3	1.30012e+06
0.152778	0.586354	 1.87696	  42.742	0.648675	0.631634	0.189945	0.754462	0.724243	 2.23308	 99.0654	 4.36154	 368.793	 3089.41	1.30789e+06
 0.15625	0.586959	 1.87985	  42.742	0.652191	0.618368	0.191371	0.751285	0.738317	 2.25131	 99.0643	  4.3631	 368.601	 3089.51	1.31497e+06
0.159722	0.587547	 1.88353	  42.742	0.655372	0.605769	0.192707	0.747781	0.752312	 2.26925	  99.063	 4.36467	  368.41	 3089.62	1.32137e+06
0.163194	0.588117	 1.88792	  42.742	0.658234	0.593807	0.193952	0.743974	0.766222	 2.28689	 99.0617	 4.36626	 368.218	 3089.73	1.32713e+06
0.166667	0.588667	 1.89298	  42.742	 0.66079	0.582456	0.195105	0.739888	0.780038	 2.30421	 99.0602	 4.36786	 368.027	 3089.83	1.33227e+06
0.170139	0.589197	 1.89866	  42.742	0.663052	0.571691	0.196168	0.735546	0.793754	  2.3212	 99.0586	 4.36946	 367.835	 3089.94	1.33682e+06
0.173611	0.589706	 1.90491	  42.742	0.665037	 0.56148	0.197141	0.730973	0.807365	 2.33783	  99.057	 4.37108	 367.645	 3090.04	1.34081e+06
0.177083	0.590194	 1.91169	  42.742	0.666756	0.551802	0.198024	 0.72619	0.820862	 2.35411	 99.0552	 4.37271	 367.454	 3090.14	1.34427e+06
0.180556	0.590661	 1.91896	  42.742	0.668223	 0.54263	 0.19882	0.721221	0.834241	 2.37001	 99.0534	 4.37434	 367.263	 3090.24	1.34721e+06
0.184028	0.591106	 1.92668	  42.742	0.669449	0.533943	0.199529	0.716086	0.847494	 2.38553	 99.0515	 4.37599	 367.073	 3090.35	1.34967e+06
  0.1875	 0.59153	 1.93481	  42.742	0.670451	0.525711	0.200154	0.710808	0.860619	 2.40066	 99.0495	 4.37764	 366.884	 3090.45	1.35168e+06
0.190972	0.591932	 1.94333	  42.742	0.671238	0.517914	0.200698	0.705406	0.873607	  2.4154	 99.0475	  4.3793	 366.694	 3090.55	1.35326e+06
0.194444	0.592312	 1.95219	  42.742	0.671824	0.510532	0.201162	0.699899	0.886455	 2.42975	 99.0454	 4.38097	 366.505	 3090.65	1.35443e+06
0.197917	0.592671	 1.96138	  42.742	 0.67222	0.503542	0.201549	0.694306	0.899157	 2.44369	 99.0432	 4.38264	 366.316	 3090.75	1.35521e+06
0.201389	 0.59301	 1.97087	  42.742	0.672437	0.496926	0.201862	0.688644	0.911709	 2.45723	 99.0409	 4.38432	 366.128	 3090.84	1.35564e+06
0.204861	0.593328	 1.98062	  42.742	0.672486	0.490661	0.202103	0.682929	0.924108	 2.47037	 99.0386	 4.38601	 365.939	 3090.94	1.35573e+06
0.208333	0.593626	 1.99063	  42.742	0.672379	 0.48473	0.202277	0.677177	0.936349	 2.48311	 99.0363	  4.3877	 365.752	 3091.04	1.3555e+06
0.211806	0.593904	 2.00086	  42.742	0.672125	0.479118	0.202385	0.671401	0.948428	 2.49545	 99.0339	  4.3894	 365.564	 3091.14	1.35498e+06
0.215278	0.594163	 2.01129	  42.742	0.671734	0.473803	0.202431	0.665616	0.960343	  2.5074	 99.0314	 4.39111	 365.377	 3091.23	1.35418e+06
 0.21875	0.594404	 2.02192	  42.742	0.671216	0.468774	0.202417	0.659835	 0.97209	 2.51896	  99.029	 4.39282	 365.191	 3091.33	1.35312e+06
0.222222	0.594626	 2.03272	  42.742	 0.67058	0.464011	0.202348	0.654067	0.983669	 2.53014	 99.0264	 4.39453	 365.004	 3091.42	1.35183e+06
0.225694	0.594832	 2.04367	  42.742	0.669834	0.459503	0.202226	0.648324	0.995074	 2.54094	 99.0239	 4.39625	 364.818	 3091.52	1.35031e+06
0.229167	 0.59502	 2.05476	  42.742	0.668987	0.455235	0.202054	0.642616	 1.00631	 2.55136	 99.0213	 4.39797	 364.633	 3091.62	1.34859e+06
0.232639	0.595192	 2.06597	  42.742	0.668047	0.451193	0.201836	0.636951	 1.01736	 2.56142	 99.0186	  4.3997	 364.448	 3091.71	1.34669e+06
0.236111	0.595349	  2.0773	  42.742	 0.66702	0.447367	0.201573	0.631337	 1.02824	 2.57113	  99.016	 4.40142	 364.263	  3091.8	1.34461e+06
0.239583	 0.59549	 2.08873	  42.742	0.665915	0.443741	 0.20127	0.625782	 1.03894	 2.58048	 99.0133	 4.40316	 364.078	  3091.9	1.34237e+06
0.243056	0.595617	 2.10024	  42.742	0.664738	0.440308	 0.20093	0.620291	 1.04946	  2.5895	 99.0106	 4.40489	 363.894	 3091.99	1.33999e+06
0.246528	0.595731	 2.11184	  42.742	0.663496	0.437057	0.200553	0.614872	  1.0598	 2.59817	 99.0078	 4.40663	 363.711	 3092.08	1.33747e+06
    0.25	 0.59583	  2.1235	  42.742	0.662194	0.433976	0.200145	0.609527	 1.06996	 2.60653	 99.0051	 4.40837	 363.527	 3092.18	1.33484e+06
0.253472	0.595918	 2.13522	  42.742	0.660839	0.431057	0.199707	0.604263	 1.07994	 2.61457	 99.0023	 4.41012	 363.345	 3092.27	1.33209e+06
0.256944	0.595993	 2.14699	  42.742	0.659436	0.428291	0.199241	0.599083	 1.08974	 2.62231	 98.9995	 4.41186	 363.162	 3092.36	1.32926e+06
0.260417	0.596056	  2.1588	  42.742	 0.65799	0.425669	0.198751	 0.59399	 1.09936	 2.62974	 98.9966	 4.41361	  362.98	 3092.45	1.32633e+06
0.263889	0.596108	 2.17065	  42.742	0.656506	0.423184	0.198238	0.588987	  1.1088	 2.63689	 98.9938	 4.41536	 362.798	 3092.54	1.32333e+06
0.267361	0.596149	 2.18253	  42.742	0.654988	 0.42083	0.197705	0.584077	 1.11805	 2.64376	 98.9909	 4.41712	 362.617	 3092.64	1.32026e+06
0.270833	0.596181	 2.19443	  42.742	0.653441	0.418596	0.197153	 0.57926	 1.12713	 2.65035	  98.988	 4.41887	 362.436	 3092.73	1.31713e+06
0.274306	0.596202	 2.20634	  42.742	0.651868	 0.41648	0.196585	 0.57454	 1.13603	 2.65669	 98.9851	 4.42063	 362.256	 3092.82	1.31395e+06
0.277778	0.596214	 2.21826	  42.742	0.650273	0.414473	0.196002	0.569916	 1.14476	 2.66276	 98.9822	 4.42239	 362.075	 3092.91	1.31073e+06
 0.28125	0.596218	 2.23019	  42.742	0.648661	 0.41257	0.195407	 0.56539	 1.15331	  2.6686	 98.9793	 4.42415	 361.896	    3093	1.30746e+06
0.284722	0.596213	 2.24212	  42.742	0.647033	0.410765	  0.1948	0.560962	 1.16168	 2.67419	 98.9764	 4.42591	 361.716	 3093.09	1.30417e+06
0.288194	  0.5962	 2.25404	  42.742	0.645394	0.409053	0.194185	0.556632	 1.16988	 2.67956	 98.9734	 4.42767	 361.537	 3093.18	1.30086e+06
0.291667	0.596179	 2.26596	  42.742	0.643745	0.407431	 0.19356	0.552401	 1.17791	  2.6847	 98.9705	 4.42944	 361.359	 3093.27	1.29753e+06
0.295139	0.596151	 2.27786	  42.742	 0.64209	0.405891	 0.19293	0.548267	 1.18576	 2.68963	 98.9675	  4.4312	  361.18	 3093.36	1.29418e+06
0.298611	0.596116	 2.28975	  42.742	0.640431	0.404431	0.192294	 0.54423	 1.19345	 2.69435	 98.9645	 4.43297	 361.003	 3093.45	1.29083e+06
0.302083	0.596075	 2.30161	  42.742	 0.63877	0.403048	0.191653	0.540291	 1.20097	 2.69887	 98.9615	 4.43474	 360.825	 3093.53	1.28747e+06
0.305556	0.596027	 2.31346	  42.742	0.637109	0.401734	 0.19101	0.536446	 1.20833	  2.7032	 98.9585	 4.43651	 360.648	 3093.62	1.28411e+06
0.309028	0.595973	 2.32527	  42.742	 0.63545	 0.40049	0.190364	0.532697	 1.21552	 2.70734	 98.9555	 4.43828	 360.471	 3093.71	1.28076e+06
  0.3125	0.595913	 2.33706	  42.742	0.633795	0.399309	0.189717	0.529041	 1.22255	 2.71131	 98.9525	 4.44005	 360.295	  3093.8	1.27742e+06
0.315972	0.595848	 2.34882	  42.742	0.632146	 0.39819	 0.18907	0.525477	 1.22942	  2.7151	 98.9495	 4.44182	 360.119	 3093.89	1.27408e+06
0.319444	0.595778	 2.36054	  42.742	0.630503	0.397129	0.188423	0.522003	 1.23614	 2.71873	 98.9465	  4.4436	 359.943	 3093.98	1.27076e+06
0.322917	0.595703	 2.37223	  42.742	0.628868	0.396123	0.187777	0.518618	  1.2427	  2.7222	 98.9435	 4.44537	 359.768	 3094.06	1.26746e+06
0.326389	0.595623	 2.38388	  42.742	0.627243	0.395169	0.187134	0.515321	 1.24911	 2.72551	 98.9405	 4.44715	 359.593	 3094.15	1.26417e+06
0.329861	0.595538	 2.39549	  42.742	0.625627	0.394266	0.186492	0.512109	 1.25536	 2.72867	 98.9374	 4.44892	 359.418	 3094.24	1.26091e+06
0.333333	0.595449	 2.40706	  42.742	0.624024	 0.39341	0.185853	0.508983	 1.26147	 2.73169	 98.9344	  4.4507	 359.244	 3094.32	1.25767e+06
0.336806	0.595357	 2.41859	  42.742	0.622432	  0.3926	0.185218	0.505938	 1.26743	 2.73458	 98.9313	 4.45248	  359.07	 3094.41	1.25445e+06
0.340278	 0.59526	 2.43007	  42.742	0.620854	0.391833	0.184587	0.502974	 1.27325	 2.73733	 98.9283	 4.45426	 358.897	  3094.5	1.25126e+06
 0.34375	 0.59516	 2.44151	  42.742	0.619289	0.391107	 0.18396	0.500089	 1.27892	 2.73995	 98.9252	 4.45604	 358.724	 3094.58	1.2481e+06
0.347222	0.595056	 2.45291	  42.742	0.617739	 0.39042	0.183338	0.497281	 1.28446	 2.74245	 98.9222	 4.45782	 358.551	 3094.67	1.24497e+06
0.350694	0.594948	 2.46425	  42.742	0.616203	 0.38977	 0.18272	0.494549	 1.28986	 2.74483	 98.9191	  4.4596	 358.379	 3094.76	1.24186e+06
0.354167	0.594838	 2.47555	  42.742	0.614682	0.389156	0.182108	0.491888	 1.29512	 2.74709	 98.9161	 4.46138	 358.207	 3094.84	1.23879e+06
0.357639	0.594724	  2.4868	  42.742	0.613177	0.388575	0.181501	  0.4893	 1.30025	 2.74925	  98.913	 4.46316	 358.035	 3094.93	1.23575e+06
0.361111	0.594608	 2.49801	  42.742	0.611687	0.388027	0.180899	 0.48678	 1.30525	  2.7513	 98.9099	 4.46494	 357.864	 3095.01	1.23274e+06
0.364583	0.594488	 2.50916	  42.742	0.610214	0.387509	0.180304	0.484329	 1.31013	 2.75325	 98.9069	 4.46673	 357.693	  3095.1	1.22976e+06
0.368056	0.594366	 2.52026	  42.742	0.608757	0.387021	0.179714	0.481943	 1.31487	  2.7551	 98.9038	 4.46851	 357.522	 3095.19	1.22681e+06
0.371528	0.594242	 2.53131	  42.742	0.607317	0.386561	 0.17913	0.479621	  1.3195	 2.75686	 98.9007	 4.47029	 357.352	 3095.27	1.2239e+06
   0.375	0.594115	 2.54231	  42.742	0.605893	0.386128	0.178552	0.477362	   1.324	 2.75852	 98.8977	 4.47208	 357.182	 3095.36	1.22102e+06
0.378472	0.593986	 2.55326	  42.742	0.604485	0.385721	0.177981	0.475163	 1.32838	  2.7601	 98.8946	 4.47386	 357.012	 3095.44	1.21818e+06
0.381944	0.593854	 2.56416	  42.742	0.603094	0.385338	0.177416	0.473022	 1.33265	 2.76159	 98.8915	 4.47565	 356.843	 3095.52	1.21537e+06
0.385417	 0.59372	   2.575	  42.742	 0.60172	0.384978	0.176856	0.470937	  1.3368	   2.763	 98.8884	 4.47744	 356.674	 3095.61	1.21259e+06
0.388889	0.593585	  2.5858	  42.742	0.600362	 0.38464	0.176304	0.468908	 1.34084	 2.76433	 98.8854	 4.47922	 356.505	 3095.69	1.20985e+06
0.392361	0.593447	 2.59654	  42.742	0.599021	0.384324	0.175757	0.466932	 1.34477	 2.76559	 98.8823	 4.48101	 356.337	 3095.78	1.20713e+06
0.395833	0.593308	 2.60724	  42.742	0.597696	0.384028	0.175217	0.465007	 1.34859	 2.76678	 98.8792	  4.4828	 356.169	 3095.86	1.20446e+06
0.399306	0.593166	 2.61788	  42.742	0.596387	0.383751	0.174683	0.463133	 1.35231	 2.76789	 98.8761	 4.48459	 356.001	 3095.94	1.20181e+06
0.402778	0.593023	 2.62847	  42.742	0.595094	0.383493	0.174155	0.461307	 1.35592	 2.76894	 98.8731	 4.48638	 355.834	 3096.03	1.1992e+06
 0.40625	0.592879	 2.63901	  42.742	0.593817	0.383253	0.173633	0.459528	 1.35943	 2.76992	   98.87	 4.48817	 355.667	 3096.11	1.19661e+06
0.409722	0.592733	  2.6495	  42.742	0.592555	 0.38303	0.173118	0.457794	 1.36284	 2.77084	 98.8669	 4.48996	   355.5	  3096.2	1.19407e+06
0.413194	0.592585	 2.65995	  42.742	0.591309	0.382823	0.172608	0.456104	 1.36616	  2.7717	 98.8638	 4.49175	 355.334	 3096.28	1.19155e+06
0.416667	0.592436	 2.67034	  42.742	0.590078	0.382632	0.172105	0.454456	 1.36938	 2.77251	 98.8607	 4.49354	 355.168	 3096.36	1.18906e+06
0.420139	0.592286	 2.68068	  42.742	0.588862	0.382456	0.171607	 0.45285	  1.3725	 2.77325	 98.8577	 4.49533	 355.002	 3096.44	1.1866e+06
0.423611	0.592134	 2.69097	  42.742	0.587661	0.382294	0.171115	0.451283	 1.37554	 2.77395	 98.8546	 4.49712	 354.837	 3096.53	1.18417e+06
0.427083	0.591982	 2.70122	  42.742	0.586474	0.382146	0.170629	0.449754	 1.37848	 2.77459	 98.8515	 4.49891	 354.672	 3096.61	1.18177e+06
0.430556	0.591828	 2.71142	  42.742	0.585301	 0.38201	0.170149	0.448261	 1.38134	 2.77518	 98.8484	 4.50071	 354.507	 3096.69	1.1794e+06
0.434028	0.591673	 2.72157	  42.742	0.584143	0.381887	0.169674	0.446805	 1.38411	 2.77573	 98.8453	  4.5025	 354.342	 3096.77	1.17706e+06
  0.4375	0.591516	 2.73168	  42.742	0.582997	0.381777	0.169205	0.445382	  1.3868	 2.77622	 98.8423	 4.50429	 354.178	 3096.86	1.17474e+06
0.440972	0.591359	 2.74174	  42.742	0.581866	0.381678	0.168741	0.443994	 1.38941	 2.77668	 98.8392	 4.50609	 354.014	 3096.94	1.17246e+06
0.444444	0.591201	 2.75175	  42.742	0.580747	0.381589	0.168282	0.442637	 1.39194	 2.77709	 98.8361	 4.50788	 353.851	 3097.02	1.17019e+06
0.447917	0.591042	 2.76172	  42.742	0.579641	0.381512	0.167828	 0.44131	 1.39439	 2.77746	  98.833	 4.50968	 353.688	  3097.1	1.16796e+06
0.451389	0.590882	 2.77165	  42.742	0.578547	0.381444	 0.16738	0.440014	 1.39676	 2.77779	 98.8299	 4.51147	 353.525	 3097.18	1.16575e+06
0.454861	0.590721	 2.78153	  42.742	0.577466	0.381386	0.166936	0.438746	 1.39906	 2.77808	 98.8269	 4.51327	 353.362	 3097.27	1.16356e+06
0.458333	0.590559	 2.79137	  42.742	0.576396	0.381337	0.166497	0.437506	 1.40129	 2.77833	 98.8238	 4.51506	   353.2	 3097.35	1.1614e+06
0.461806	0.590397	 2.80117	  42.742	0.575338	0.381298	0.166064	0.436292	 1.40344	 2.77855	 98.8207	 4.51686	 353.038	 3097.43	1.15926e+06
0.465278	0.590233	 2.81093	  42.742	0.574291	0.381267	0.165634	0.435104	 1.40553	 2.77874	 98.8176	 4.51866	 352.876	 3097.51	1.15714e+06
 0.46875	0.590069	 2.82065	  42.742	0.573256	0.381243	 0.16521	0.433941	 1.40754	 2.77889	 98.8146	 4.52046	 352.715	 3097.59	1.15505e+06
0.472222	0.589905	 2.83033	  42.742	0.572231	0.381228	 0.16479	0.432801	 1.40949	 2.77901	 98.8115	 4.52225	 352.554	 3097.67	1.15297e+06
0.475694	 0.58974	 2.83997	  42.742	0.571216	0.381221	0.164374	0.431685	 1.41138	  2.7791	 98.8084	 4.52405	 352.393	 3097.75	1.15092e+06
0.479167	0.589574	 2.84957	  42.742	0.570212	 0.38122	0.163962	0.430591	  1.4132	 2.77916	 98.8054	 4.52585	 352.232	 3097.83	1.14889e+06
0.482639	0.589407	 2.85913	  42.742	0.569217	0.381227	0.163555	0.429518	 1.41496	 2.77919	 98.8023	 4.52765	 352.072	 3097.91	1.14688e+06
0.486111	 0.58924	 2.86865	  42.742	0.568232	 0.38124	0.163152	0.428465	 1.41666	 2.77919	 98.7992	 4.52945	 351.912	 3097.99	1.14489e+06
0.489583	0.589073	 2.87814	  42.742	0.567257	 0.38126	0.162752	0.427432	  1.4183	 2.77917	 98.7962	 4.53125	 351.753	 3098.07	1.14292e+06
