#.t	.Aer_Anox_ZP.C(S_A)	.Aer_Anox_ZP.C(S_F)	.Aer_Anox_ZP.C(S_I)	.Aer_Anox_ZP.C(S_N2O)	.Aer_Anox_ZP.C(S_NH)	.Aer_Anox_ZP.C(S_NO)	.Aer_Anox_ZP.C(S_NO2)	.Aer_Anox_ZP.C(S_NO3)	.Aer_Anox_ZP.C(S_O)	.Aer_Anox_ZP.C(X_BA1)	.Aer_Anox_ZP.C(X_BA2)	.Aer_Anox_ZP.C(X_H)	.Aer_Anox_ZP.C(X_TSS)	.Aer_Anox_ZP.FluxN2O_gas
#d	g/m3	g/m3	g/m3	g/m3	g/m3	g/m3	g/m3	g/m3	g/m3	g/m3	g/m3	g/m3	g/m3	g/d
       0	0.449869	 4.21568	  42.742	0.0460128	  2.3963	0.0565285	0.492947	0.0173533	 1.80465	 98.8969	 4.30192	 376.727	 3082.91	 92803.7
0.00347222	0.503771	  4.1161	  42.742	0.108155	  2.3138	0.190372	0.441087	0.0470858	 1.74517	  98.908	 4.30392	  376.54	    3083	  218136
0.00694444	 0.54286	 4.04281	  42.742	0.162955	 2.24164	0.249574	0.449064	0.0734836	 1.68405	 98.9181	 4.30568	 376.348	 3083.12	  328657
0.0104167	0.566544	 3.93854	  42.742	0.213687	 2.17706	0.290437	0.446533	0.0981004	 1.65384	  98.927	 4.30737	 376.172	 3083.28	  430973
0.0138889	0.580864	 3.83737	  42.742	0.254378	  2.1193	0.323988	0.447856	0.120637	 1.64194	 98.9348	 4.30894	 375.999	 3083.46	  513039
0.0173611	0.589548	   3.742	  42.742	0.286806	 2.06599	 0.35529	0.452038	0.141674	 1.63957	 98.9419	 4.31043	 375.826	 3083.64	  578436
0.0208333	0.594708	 3.65318	  42.742	0.313087	 2.01539	0.387171	0.458131	0.161545	 1.64192	 98.9485	 4.31186	 375.653	 3083.83	  631436
0.0243056	0.597629	 3.57225	  42.742	0.334498	 1.96682	0.420984	0.465992	0.180433	 1.64681	 98.9548	 4.31325	 375.478	 3084.01	  674614
0.0277778	0.599129	 3.49948	  42.742	0.351973	 1.91988	0.457256	 0.47535	0.198478	 1.65317	 98.9608	  4.3146	 375.302	  3084.2	  709852
 0.03125	 0.59974	 3.43465	  42.742	0.366221	 1.87435	0.496056	 0.48596	0.215788	 1.66047	 98.9666	 4.31592	 375.125	 3084.38	  738583
0.0347222	0.599813	 3.37727	  42.742	0.377808	 1.83008	0.537171	0.497602	0.232446	 1.66843	 98.9721	 4.31721	 374.945	 3084.56	  761945
0.0381944	 0.59958	 3.32665	  42.742	0.387203	 1.78696	0.580218	0.510071	0.248523	  1.6769	 98.9773	 4.31848	 374.765	 3084.74	  780887
0.0416667	0.599194	 3.28199	  42.742	0.394807	 1.74494	0.624727	0.523171	0.264078	  1.6858	 98.9823	 4.31973	 374.583	 3084.92	  796217
0.0451389	0.598754	 3.24254	  42.742	0.400952	 1.70396	0.670214	0.536726	0.279159	 1.69509	 98.9871	 4.32097	 374.399	 3085.09	  808602
0.0486111	0.598323	 3.20746	  42.742	0.405939	 1.66398	0.716192	0.550564	0.293816	 1.70475	 98.9917	 4.32219	 374.216	 3085.26	  818654
0.0520833	0.597938	 3.17604	  42.742	0.410012	 1.62498	0.762231	0.564532	0.308091	 1.71476	 98.9961	  4.3234	 374.031	 3085.43	  826863
0.0555556	0.597621	 3.14766	  42.742	0.413366	 1.58693	0.807948	0.578494	0.322019	 1.72511	 99.0003	 4.32461	 373.846	  3085.6	  833619
0.0590278	0.597381	 3.12177	  42.742	0.416164	 1.54981	0.853022	0.592326	0.335636	 1.73579	 99.0042	 4.32581	  373.66	 3085.76	  839255
  0.0625	0.597219	 3.09789	  42.742	0.418537	  1.5136	0.897192	 0.60592	0.348973	 1.74679	  99.008	   4.327	 373.475	 3085.92	  844033
0.0659722	0.597133	 3.07565	  42.742	0.420584	 1.47829	0.940246	0.619183	0.362061	 1.75809	 99.0116	  4.3282	 373.289	 3086.08	  848153
0.0694444	0.597117	 3.05473	  42.742	0.422381	 1.44388	0.982018	 0.63203	0.374924	 1.76969	 99.0149	 4.32939	 373.103	 3086.24	  851770
0.0729167	0.597164	 3.03487	  42.742	0.423989	 1.41033	  1.0224	0.644397	0.387591	 1.78158	 99.0181	 4.33058	 372.917	  3086.4	  855006
0.0763889	0.597266	 3.01588	  42.742	0.425451	 1.37764	 1.06129	0.656224	0.400082	 1.79373	 99.0211	 4.33178	 372.731	 3086.56	  857947
0.0798611	0.597415	 2.99762	  42.742	0.426798	  1.3458	 1.09865	0.667461	0.412418	 1.80613	 99.0239	 4.33298	 372.545	 3086.71	  860655
0.0833333	0.597604	 2.97996	  42.742	0.428051	  1.3148	 1.13444	0.678069	0.424618	 1.81878	 99.0265	 4.33418	  372.36	 3086.86	  863174
0.0868055	0.597826	 2.96283	  42.742	0.429226	 1.28464	 1.16864	0.688016	0.436701	 1.83166	 99.0289	 4.33539	 372.174	 3087.01	  865536
0.0902778	0.598076	 2.94619	  42.742	0.430333	 1.25529	 1.20126	0.697278	 0.44868	 1.84475	 99.0312	 4.33661	 371.989	 3087.16	  867760
 0.09375	0.598347	 2.92998	  42.742	0.431377	 1.22675	 1.23232	 0.70584	0.460571	 1.85804	 99.0332	 4.33783	 371.803	 3087.31	  869859
0.0972222	0.598636	  2.9142	  42.742	0.432363	   1.199	 1.26187	0.713693	0.472387	 1.87152	 99.0351	 4.33906	 371.618	 3087.45	  871839
0.100694	0.598939	 2.89885	  42.742	 0.43329	 1.17205	 1.28989	0.720816	0.484137	 1.88517	 99.0369	  4.3403	 371.433	 3087.59	  873701
0.104167	0.599253	 2.88392	  42.742	 0.43416	 1.14587	 1.31647	 0.72722	0.495831	 1.89898	 99.0385	 4.34155	 371.248	 3087.74	  875447
0.107639	0.599574	 2.86943	  42.742	0.434971	 1.12047	 1.34162	0.732899	0.507479	 1.91293	 99.0399	 4.34281	 371.063	 3087.88	  877073
0.111111	0.599902	 2.85539	  42.742	0.435722	 1.09581	 1.36541	0.737867	0.519087	 1.92701	 99.0412	 4.34408	 370.878	 3088.01	  878580
0.114583	0.600234	 2.84183	  42.742	0.436411	 1.07192	 1.38787	0.742115	 0.53066	  1.9412	 99.0423	 4.34536	 370.693	 3088.15	  879961
0.118056	0.600568	 2.82875	  42.742	0.437038	 1.04875	 1.40906	 0.74567	0.542205	  1.9555	 99.0433	 4.34665	 370.509	 3088.28	  881217
0.121528	0.600902	 2.81618	  42.742	0.437601	  1.0263	 1.42904	0.748543	0.553725	 1.96988	 99.0441	 4.34795	 370.324	 3088.42	  882344
   0.125	0.601237	 2.80414	  42.742	0.438099	 1.00457	 1.44784	0.750746	0.565223	 1.98433	 99.0448	 4.34926	  370.14	 3088.55	  883341
0.128472	 0.60157	 2.79265	  42.742	 0.43853	0.983553	  1.4655	0.752289	0.576701	 1.99883	 99.0453	 4.35058	 369.956	 3088.68	  884203
0.131944	0.601901	 2.78172	  42.742	0.438897	0.963219	  1.4821	0.753204	0.588161	 2.01337	 99.0457	 4.35191	 369.772	 3088.81	  884933
0.135417	0.602229	 2.77137	  42.742	0.439196	0.943564	 1.49766	0.753505	0.599603	 2.02794	  99.046	 4.35326	 369.588	 3088.93	  885530
0.138889	0.602552	 2.76161	  42.742	0.439431	 0.92457	 1.51225	0.753221	0.611027	 2.04251	 99.0461	 4.35461	 369.404	 3089.06	  885995
0.142361	 0.60287	 2.75245	  42.742	  0.4396	0.906232	  1.5259	0.752369	0.622432	 2.05708	 99.0461	 4.35598	  369.22	 3089.18	  886328
0.145833	0.603182	 2.74389	  42.742	0.439705	0.888529	 1.53865	0.750976	0.633818	 2.07162	  99.046	 4.35736	 369.037	 3089.31	  886532
0.149306	0.603488	 2.73595	  42.742	0.439746	0.871454	 1.55055	0.749065	0.645182	 2.08612	 99.0458	 4.35875	 368.853	 3089.43	  886607
0.152778	0.603787	 2.72863	  42.742	0.439726	0.854993	 1.56162	0.746659	0.656522	 2.10057	 99.0455	 4.36015	  368.67	 3089.55	  886557
 0.15625	0.604077	 2.72193	  42.742	0.439644	0.839129	 1.57193	0.743789	0.667836	 2.11494	 99.0451	 4.36156	 368.486	 3089.67	  886385
0.159722	0.604359	 2.71586	  42.742	0.439504	0.823852	 1.58148	0.740476	 0.67912	 2.12923	 99.0445	 4.36298	 368.303	 3089.78	  886094
0.163194	0.604632	  2.7104	  42.742	0.439306	0.809139	 1.59035	0.736754	0.690371	 2.14342	 99.0439	 4.36442	  368.12	  3089.9	  885688
0.166667	0.604896	 2.70556	  42.742	0.439054	0.794983	 1.59853	0.732643	0.701586	 2.15749	 99.0431	 4.36586	 367.938	 3090.01	  885172
0.170139	 0.60515	 2.70132	  42.742	0.438749	0.781362	 1.60609	0.728175	0.712761	 2.17143	 99.0423	 4.36731	 367.755	 3090.13	  884549
0.173611	0.605393	  2.6977	  42.742	0.438393	0.768267	 1.61303	0.723372	0.723892	 2.18524	 99.0413	 4.36878	 367.572	 3090.24	  883824
0.177083	0.605626	 2.69467	  42.742	0.437989	0.755682	  1.6194	0.718261	0.734975	 2.19888	 99.0403	 4.37025	  367.39	 3090.35	  883001
0.180556	0.605848	 2.69223	  42.742	0.437539	0.743587	 1.62523	 0.71287	0.746005	 2.21236	 99.0392	 4.37173	 367.208	 3090.46	  882087
0.184028	0.606058	 2.69037	  42.742	0.437045	0.731973	 1.63053	0.707221	0.756978	 2.22566	  99.038	 4.37323	 367.026	 3090.57	  881084
  0.1875	0.606258	 2.68909	  42.742	0.436511	0.720823	 1.63534	0.701339	 0.76789	 2.23877	 99.0367	 4.37473	 366.844	 3090.68	  879998
0.190972	0.606446	 2.68836	  42.742	0.435938	0.710117	 1.63969	0.695251	0.778737	 2.25168	 99.0353	 4.37624	 366.662	 3090.79	  878835
0.194444	0.606623	 2.68819	  42.742	0.435328	0.699847	 1.64359	0.688977	0.789513	 2.26438	 99.0339	 4.37776	 366.481	  3090.9	  877599
0.197917	0.606788	 2.68855	  42.742	0.434685	0.689998	 1.64707	 0.68254	0.800215	 2.27686	 99.0324	 4.37928	 366.299	    3091	  876295
0.201389	0.606942	 2.68944	  42.742	0.434011	0.680549	 1.65016	0.675964	0.810838	 2.28911	 99.0309	 4.38082	 366.118	 3091.11	  874929
0.204861	0.607084	 2.69084	  42.742	0.433308	0.671488	 1.65287	0.669268	0.821379	 2.30114	 99.0292	 4.38236	 365.937	 3091.21	  873504
0.208333	0.607215	 2.69274	  42.742	0.432579	0.662806	 1.65522	0.662472	0.831832	 2.31292	 99.0275	 4.38391	 365.757	 3091.32	  872027
0.211806	0.607334	 2.69513	  42.742	0.431826	0.654482	 1.65724	0.655596	0.842195	 2.32446	 99.0258	 4.38547	 365.576	 3091.42	  870501
0.215278	0.607443	 2.69799	  42.742	0.431051	0.646507	 1.65894	0.648658	0.852463	 2.33576	  99.024	 4.38703	 365.396	 3091.52	  868933
 0.21875	0.607541	 2.70132	  42.742	0.430257	0.638867	 1.66033	0.641675	0.862631	 2.34679	 99.0221	  4.3886	 365.216	 3091.63	  867325
0.222222	0.607628	 2.70509	  42.742	0.429446	0.631547	 1.66145	0.634663	0.872698	 2.35758	 99.0202	 4.39017	 365.036	 3091.73	  865683
0.225694	0.607704	  2.7093	  42.742	 0.42862	0.624535	 1.66231	0.627639	0.882659	 2.36811	 99.0183	 4.39176	 364.857	 3091.83	  864011
0.229167	 0.60777	 2.71392	  42.742	0.427781	0.617819	 1.66291	0.620615	0.892511	 2.37837	 99.0163	 4.39334	 364.677	 3091.93	  862313
0.232639	0.607827	 2.71896	  42.742	0.426932	0.611387	 1.66328	0.613607	0.902251	 2.38838	 99.0142	 4.39494	 364.498	 3092.03	  860594
0.236111	0.607873	 2.72439	  42.742	0.426073	0.605228	 1.66344	0.606625	0.911876	 2.39813	 99.0121	 4.39653	 364.319	 3092.13	  858856
0.239583	 0.60791	  2.7302	  42.742	0.425208	0.599331	 1.66338	0.599684	0.921382	 2.40762	   99.01	 4.39814	 364.141	 3092.23	  857105
0.243056	0.607937	 2.73638	  42.742	0.424338	0.593683	 1.66313	0.592792	0.930768	 2.41685	 99.0078	 4.39974	 363.962	 3092.32	  855344
0.246528	0.607956	 2.74292	  42.742	0.423464	0.588278	 1.66271	 0.58596	0.940031	 2.42582	 99.0056	 4.40136	 363.784	 3092.42	  853576
    0.25	0.607966	 2.74979	  42.742	0.422588	  0.5831	 1.66211	0.579197	 0.94917	 2.43454	 99.0034	 4.40297	 363.606	 3092.52	  851804
0.253472	0.607967	   2.757	  42.742	0.421712	0.578142	 1.66137	0.572512	0.958182	   2.443	 99.0011	 4.40459	 363.429	 3092.62	  850031
0.256944	 0.60796	 2.76453	  42.742	0.420838	0.573397	 1.66047	0.565913	0.967064	 2.45121	 98.9988	 4.40622	 363.252	 3092.71	  848262
0.260417	0.607945	 2.77236	  42.742	0.419966	0.568851	 1.65944	0.559404	0.975816	 2.45918	 98.9965	 4.40785	 363.075	 3092.81	  846497
0.263889	0.607923	 2.78048	  42.742	0.419097	  0.5645	 1.65829	0.552994	0.984436	  2.4669	 98.9941	 4.40948	 362.898	  3092.9	  844740
0.267361	0.607893	 2.78889	  42.742	0.418234	0.560335	 1.65702	0.546689	0.992922	 2.47438	 98.9917	 4.41112	 362.721	    3093	  842994
0.270833	0.607856	 2.79757	  42.742	0.417377	0.556346	 1.65565	0.540491	 1.00127	 2.48163	 98.9893	 4.41276	 362.545	  3093.1	  841260
0.274306	0.607813	 2.80651	  42.742	0.416528	0.552525	 1.65418	0.534406	 1.00949	 2.48865	 98.9869	  4.4144	 362.369	 3093.19	  839541
0.277778	0.607762	 2.81569	  42.742	0.415686	0.548868	 1.65262	0.528437	 1.01757	 2.49543	 98.9844	 4.41604	 362.193	 3093.28	  837838
 0.28125	0.607706	 2.82512	  42.742	0.414854	0.545366	 1.65098	0.522587	 1.02551	   2.502	  98.982	 4.41769	 362.018	 3093.38	  836154
0.284722	0.607643	 2.83477	  42.742	0.414031	0.542012	 1.64926	 0.51686	 1.03332	 2.50834	 98.9795	 4.41934	 361.843	 3093.47	  834490
0.288194	0.607575	 2.84464	  42.742	 0.41322	0.538801	 1.64748	0.511257	 1.04099	 2.51447	  98.977	   4.421	 361.668	 3093.56	  832848
0.291667	0.607501	 2.85471	  42.742	 0.41242	0.535725	 1.64564	0.505779	 1.04852	 2.52039	 98.9744	 4.42265	 361.494	 3093.66	  831229
0.295139	0.607421	 2.86498	  42.742	0.411632	 0.53278	 1.64374	 0.50043	 1.05591	 2.52611	 98.9719	 4.42431	 361.319	 3093.75	  829635
0.298611	0.607336	 2.87544	  42.742	0.410856	 0.52996	  1.6418	0.495208	 1.06316	 2.53163	 98.9693	 4.42597	 361.146	 3093.84	  828066
0.302083	0.607247	 2.88608	  42.742	0.410094	0.527258	 1.63981	0.490113	 1.07028	 2.53695	 98.9667	 4.42763	 360.972	 3093.94	  826523
0.305556	0.607152	 2.89689	  42.742	0.409345	0.524672	 1.63779	0.485148	 1.07726	 2.54209	 98.9641	  4.4293	 360.799	 3094.03	  825008
0.309028	0.607053	 2.90786	  42.742	0.408611	0.522194	 1.63574	0.480311	  1.0841	 2.54704	 98.9615	 4.43096	 360.626	 3094.12	  823521
  0.3125	 0.60695	 2.91898	  42.742	0.407891	0.519823	 1.63365	0.475604	  1.0908	 2.55181	 98.9589	 4.43263	 360.453	 3094.21	  822063
0.315972	0.606842	 2.93025	  42.742	0.407185	0.517551	 1.63155	0.471023	 1.09737	  2.5564	 98.9562	  4.4343	  360.28	  3094.3	  820634
0.319444	0.606731	 2.94165	  42.742	0.406494	0.515375	 1.62942	0.466569	  1.1038	 2.56083	 98.9536	 4.43598	 360.108	 3094.39	  819236
0.322917	0.606615	 2.95318	  42.742	0.405818	0.513293	 1.62728	0.462242	  1.1101	 2.56509	 98.9509	 4.43765	 359.937	 3094.48	  817868
0.326389	0.606496	 2.96483	  42.742	0.405158	0.511298	 1.62513	0.458037	 1.11626	 2.56919	 98.9482	 4.43933	 359.765	 3094.57	  816531
0.329861	0.606374	  2.9766	  42.742	0.404512	0.509389	 1.62296	0.453956	 1.12229	 2.57313	 98.9456	   4.441	 359.594	 3094.66	  815224
0.333333	0.606248	 2.98847	  42.742	0.403883	0.507561	  1.6208	0.449997	 1.12819	 2.57692	 98.9429	 4.44268	 359.423	 3094.75	  813949
0.336806	0.606119	 3.00045	  42.742	0.403268	 0.50581	 1.61863	0.446156	 1.13396	 2.58057	 98.9402	 4.44436	 359.252	 3094.84	  812705
0.340278	0.605987	 3.01252	  42.742	 0.40267	0.504133	 1.61646	0.442433	  1.1396	 2.58407	 98.9374	 4.44604	 359.082	 3094.93	  811493
 0.34375	0.605851	 3.02467	  42.742	0.402086	0.502529	  1.6143	0.438826	  1.1451	 2.58743	 98.9347	 4.44772	 358.912	 3095.02	  810311
0.347222	0.605714	 3.03691	  42.742	0.401518	0.500993	 1.61214	0.435332	 1.15049	 2.59066	  98.932	 4.44941	 358.743	 3095.11	  809161
0.350694	0.605573	 3.04923	  42.742	0.400966	0.499523	 1.60998	0.431949	 1.15574	 2.59376	 98.9293	 4.45109	 358.573	  3095.2	  808041
0.354167	 0.60543	 3.06161	  42.742	0.400429	0.498116	 1.60784	0.428676	 1.16088	 2.59674	 98.9265	 4.45278	 358.404	 3095.29	  806953
0.357639	0.605284	 3.07406	  42.742	0.399907	0.496769	 1.60571	0.425509	 1.16589	 2.59959	 98.9238	 4.45447	 358.235	 3095.38	  805895
0.361111	0.605136	 3.08657	  42.742	  0.3994	0.495482	 1.60359	0.422447	 1.17077	 2.60232	  98.921	 4.45616	 358.067	 3095.47	  804868
0.364583	0.604986	 3.09914	  42.742	0.398908	 0.49425	 1.60149	0.419488	 1.17554	 2.60494	 98.9182	 4.45785	 357.899	 3095.56	  803871
0.368056	0.604834	 3.11176	  42.742	 0.39843	0.493072	  1.5994	0.416629	 1.18019	 2.60745	 98.9155	 4.45954	 357.731	 3095.64	  802903
0.371528	0.604679	 3.12442	  42.742	0.397968	0.491946	 1.59733	0.413868	 1.18472	 2.60984	 98.9127	 4.46123	 357.564	 3095.73	  801966
   0.375	0.604523	 3.13713	  42.742	 0.39752	0.490869	 1.59528	0.411201	 1.18914	 2.61214	 98.9099	 4.46292	 357.397	 3095.82	  801057
0.378472	0.604365	 3.14987	  42.742	0.397086	0.489839	 1.59324	0.408627	 1.19344	 2.61433	 98.9071	 4.46461	  357.23	 3095.91	  800176
0.381944	0.604205	 3.16265	  42.742	0.396666	0.488855	 1.59123	0.406143	 1.19763	 2.61643	 98.9043	 4.46631	 357.063	    3096	  799324
0.385417	0.604043	 3.17546	  42.742	0.396259	0.487914	 1.58924	0.403747	 1.20171	 2.61843	 98.9015	   4.468	 356.897	 3096.08	  798500
0.388889	 0.60388	 3.18829	  42.742	0.395866	0.487016	 1.58727	0.401436	 1.20568	 2.62034	 98.8987	  4.4697	 356.731	 3096.17	  797702
0.392361	0.603715	 3.20115	  42.742	0.395487	0.486158	 1.58532	0.399208	 1.20955	 2.62217	 98.8959	  4.4714	 356.565	 3096.26	  796932
0.395833	0.603549	 3.21403	  42.742	0.395121	 0.48534	  1.5834	0.397062	 1.21331	  2.6239	 98.8931	  4.4731	   356.4	 3096.34	  796188
0.399306	0.603381	 3.22692	  42.742	0.394767	0.484559	  1.5815	0.394994	 1.21696	 2.62556	 98.8903	 4.47479	 356.235	 3096.43	  795470
0.402778	0.603212	 3.23983	  42.742	0.394426	0.483813	 1.57962	0.393002	 1.22051	 2.62713	 98.8875	 4.47649	  356.07	 3096.52	  794778
 0.40625	0.603041	 3.25276	  42.742	0.394097	0.483103	 1.57777	0.391083	 1.22397	 2.62863	 98.8847	 4.47819	 355.906	  3096.6	  794110
0.409722	 0.60287	 3.26569	  42.742	0.393781	0.482425	 1.57594	0.389236	 1.22732	 2.63005	 98.8818	 4.47989	 355.742	 3096.69	  793466
0.413194	0.602697	 3.27862	  42.742	0.393476	0.481779	 1.57414	0.387459	 1.23058	  2.6314	  98.879	  4.4816	 355.578	 3096.78	  792846
0.416667	0.602523	 3.29156	  42.742	0.393182	0.481164	 1.57236	0.385749	 1.23374	 2.63268	 98.8762	  4.4833	 355.415	 3096.86	  792250
0.420139	0.602348	 3.30451	  42.742	  0.3929	0.480579	 1.57061	0.384104	 1.23681	 2.63389	 98.8734	   4.485	 355.252	 3096.95	  791676
0.423611	0.602173	 3.31745	  42.742	0.392629	0.480021	 1.56888	0.382522	 1.23978	 2.63503	 98.8705	  4.4867	 355.089	 3097.04	  791124
0.427083	0.601996	 3.33039	  42.742	0.392369	0.479491	 1.56718	0.381001	 1.24267	 2.63611	 98.8677	 4.48841	 354.926	 3097.12	  790594
0.430556	0.601818	 3.34333	  42.742	0.392119	0.478988	  1.5655	0.379539	 1.24547	 2.63713	 98.8649	 4.49011	 354.764	 3097.21	  790086
0.434028	0.601639	 3.35626	  42.742	0.391879	0.478509	 1.56385	0.378135	 1.24818	 2.63809	  98.862	 4.49182	 354.602	 3097.29	  789598
  0.4375	 0.60146	 3.36918	  42.742	 0.39165	0.478056	 1.56222	0.376786	  1.2508	   2.639	 98.8592	 4.49352	 354.441	 3097.38	  789130
0.440972	 0.60128	  3.3821	  42.742	 0.39143	0.477625	 1.56062	0.375489	 1.25335	 2.63985	 98.8563	 4.49523	 354.279	 3097.46	  788681
0.444444	0.601099	 3.39501	  42.742	 0.39122	0.477217	 1.55904	0.374245	 1.25581	 2.64064	 98.8535	 4.49694	 354.118	 3097.55	  788252
0.447917	0.600917	  3.4079	  42.742	0.391018	 0.47683	 1.55748	 0.37305	 1.25819	 2.64139	 98.8506	 4.49864	 353.958	 3097.63	  787841
0.451389	0.600735	 3.42078	  42.742	0.390826	0.476464	 1.55595	0.371903	 1.26049	 2.64208	 98.8478	 4.50035	 353.797	 3097.72	  787449
0.454861	0.600552	 3.43365	  42.742	0.390643	0.476118	 1.55445	0.370802	 1.26271	 2.64273	  98.845	 4.50206	 353.637	  3097.8	  787074
0.458333	0.600368	 3.44651	  42.742	0.390468	0.475792	 1.55296	0.369747	 1.26486	 2.64332	 98.8421	 4.50377	 353.478	 3097.89	  786716
0.461806	0.600184	 3.45935	  42.742	0.390301	0.475484	  1.5515	0.368734	 1.26694	 2.64388	 98.8393	 4.50548	 353.318	 3097.97	  786374
0.465278	0.599999	 3.47217	  42.742	0.390142	0.475194	 1.55007	0.367763	 1.26894	 2.64439	 98.8364	 4.50719	 353.159	 3098.05	  786049
 0.46875	0.599814	 3.48497	  42.742	0.389991	0.474921	 1.54865	0.366833	 1.27087	 2.64486	 98.8335	  4.5089	     353	 3098.14	  785740
0.472222	0.599628	 3.49776	  42.742	0.389848	0.474665	 1.54726	0.365941	 1.27273	 2.64528	 98.8307	 4.51061	 352.841	 3098.22	  785446
0.475694	0.599442	 3.51053	  42.742	0.389712	0.474424	 1.54589	0.365086	 1.27453	 2.64567	 98.8278	 4.51232	 352.683	 3098.31	  785167
0.479167	0.599255	 3.52328	  42.742	0.389583	0.474199	 1.54454	0.364267	 1.27626	 2.64602	  98.825	 4.51404	 352.525	 3098.39	  784902
0.482639	0.599068	 3.53601	  42.742	0.389461	0.473989	 1.54322	0.363483	 1.27792	 2.64633	 98.8221	 4.51575	 352.367	 3098.47	  784651
0.486111	0.598881	 3.54872	  42.742	0.389346	0.473792	 1.54191	0.362732	 1.27952	 2.64661	 98.8193	 4.51746	  352.21	 3098.56	  784414
0.489583	0.598693	 3.56141	  42.742	0.389237	 0.47361	 1.54062	0.362013	 1.28106	 2.64686	 98.8164	 4.51918	 352.053	 3098.64	  784190
0.493056	0.598505	 3.57407	  42.742	0.389135	0.473441	 1.53936	0.361325	 1.28253	 2.64707	 98.8136	 4.52089	 351.896	 3098.72	  783978
0.496528	0.598316	 3.58672	  42.742	0.389038	0.473284	 1.53811	0.360666	 1.28395	 2.64724	 98.8107	  4.5226	 351.739	 3098.81	  783779
     0.5	0.598128	 3.59934	  42.742	0.388948	0.473139	 1.53689	0.360036	 1.28531	 2.64739	 98.8079	 4.52432	 351.583	 3098.89	  783592
