#.t	.Aer_Anox_ZP.C(S_A)	.Aer_Anox_ZP.C(S_F)	.Aer_Anox_ZP.C(S_I)	.Aer_Anox_ZP.C(S_N2O)	.Aer_Anox_ZP.C(S_NH)	.Aer_Anox_ZP.C(S_NO)	.Aer_Anox_ZP.C(S_NO2)	.Aer_Anox_ZP.C(S_NO3)	.Aer_Anox_ZP.C(S_O)	.Aer_Anox_ZP.C(X_BA1)	.Aer_Anox_ZP.C(X_BA2)	.Aer_Anox_ZP.C(X_H)	.Aer_Anox_ZP.C(X_TSS)	.Aer_Anox_ZP.FluxN2O_gas
#d	g/m3	g/m3	g/m3	g/m3	g/m3	g/m3	g/m3	g/m3	g/m3	g/m3	g/m3	g/m3	g/m3	g/d
       0	0.449869	 4.21568	  42.742	0.0460128	  2.3963	0.0565285	0.492947	0.0173533	 1.80465	 98.8969	 4.30192	 376.727	 3082.91	 92803.7
0.00347222	0.505485	 4.12938	  42.742	0.0794795	 2.39386	0.070829	0.517662	0.0480332	 1.88095	 98.8962	   4.304	 376.533	 3082.99	  160301
0.00694444	0.549843	 4.09107	  42.742	0.0905595	  2.3822	0.077887	0.591757	0.0776386	 1.88214	 98.8974	 4.30607	 376.323	  3083.1	  182646
0.0104167	0.579159	 4.01237	  42.742	0.100969	 2.36919	0.0829475	0.648155	0.106861	 1.88163	 98.8986	 4.30819	 376.128	 3083.26	  203639
0.0138889	0.597786	 3.92407	  42.742	0.109373	 2.35731	0.0870496	0.699207	 0.13437	 1.88377	 98.8996	 4.31022	 375.939	 3083.44	  220587
0.0173611	0.609352	 3.83202	  42.742	0.116496	 2.34704	0.0908884	0.746271	0.160487	 1.88925	 98.9004	 4.31219	 375.753	 3083.62	  234951
0.0208333	0.616161	  3.7374	  42.742	0.122891	 2.33776	0.094666	0.789792	0.185421	 1.89684	 98.9009	  4.3141	  375.57	  3083.8	  247849
0.0243056	0.619787	 3.64223	  42.742	  0.1289	  2.3292	0.0984708	0.830608	0.209301	 1.90571	 98.9012	 4.31596	 375.388	 3083.99	  259966
0.0277778	0.621337	 3.54778	  42.742	0.134703	 2.32118	0.102341	0.869277	0.232261	 1.91532	 98.9014	 4.31778	 375.208	 3084.18	  271669
 0.03125	0.621545	 3.45493	  42.742	0.140393	 2.31356	0.106301	0.906188	0.254403	 1.92536	 98.9015	 4.31955	 375.028	 3084.36	  283143
0.0347222	0.620916	 3.36436	  42.742	0.146016	 2.30626	 0.11037	0.941639	0.275813	 1.93563	 98.9014	  4.3213	 374.849	 3084.55	  294483
0.0381944	0.619789	 3.27653	  42.742	0.151596	 2.29921	0.114569	0.975859	0.296568	 1.94601	 98.9013	 4.32301	 374.669	 3084.72	  305735
0.0416667	0.618391	 3.19177	  42.742	0.157143	 2.29237	0.118916	 1.00902	0.316732	 1.95644	 98.9011	 4.32469	  374.49	  3084.9	  316921
0.0451389	0.616866	 3.11039	  42.742	 0.16266	 2.28572	0.123432	 1.04125	 0.33635	 1.96686	 98.9007	 4.32635	  374.31	 3085.07	  328046
0.0486111	0.615309	 3.03247	  42.742	0.168146	 2.27923	0.128134	 1.07266	 0.35548	 1.97724	 98.9004	 4.32799	  374.13	 3085.24	  339107
0.0520833	0.613776	 2.95811	  42.742	0.173595	 2.27287	0.133038	 1.10334	0.374162	 1.98756	 98.8999	 4.32961	  373.95	 3085.41	  350094
0.0555556	0.612299	  2.8874	  42.742	0.178999	 2.26665	0.138163	 1.13335	0.392426	  1.9978	 98.8993	 4.33122	 373.769	 3085.57	  360991
0.0590278	0.610893	 2.82032	  42.742	0.184348	 2.26054	0.143525	 1.16272	0.410305	 2.00796	 98.8987	  4.3328	 373.587	 3085.73	  371777
  0.0625	0.609563	 2.75683	  42.742	0.189632	 2.25454	0.149136	 1.19152	0.427828	 2.01802	  98.898	 4.33438	 373.405	 3085.89	  382431
0.0659722	0.608309	 2.69692	  42.742	0.194837	 2.24863	0.155012	 1.21977	0.445015	 2.02796	 98.8973	 4.33594	 373.222	 3086.04	  392926
0.0694444	0.607126	 2.64053	  42.742	0.199951	 2.24283	0.161163	 1.24748	0.461886	 2.03779	 98.8964	 4.33749	 373.038	 3086.19	  403236
0.0729167	0.606009	 2.58753	  42.742	 0.20496	  2.2371	0.167597	  1.2747	0.478461	  2.0475	 98.8955	 4.33903	 372.854	 3086.34	  413336
0.0763889	0.604954	 2.53793	  42.742	0.209849	 2.23146	0.174328	 1.30141	0.494748	 2.05708	 98.8946	 4.34057	  372.67	 3086.48	  423193
0.0798611	0.603954	 2.49153	  42.742	0.214609	  2.2259	 0.18135	 1.32765	0.510769	 2.06653	 98.8936	 4.34209	 372.485	 3086.63	  432789
0.0833333	0.603006	 2.44834	  42.742	0.219222	 2.22041	0.188677	  1.3534	0.526524	 2.07584	 98.8925	 4.34361	 372.299	 3086.76	  442090
0.0868055	0.602104	 2.40814	  42.742	0.223683	 2.21499	0.196297	  1.3787	0.542033	 2.08501	 98.8914	 4.34513	 372.113	  3086.9	  451083
0.0902778	0.601247	 2.37094	  42.742	0.227977	 2.20964	0.204216	 1.40353	0.557293	 2.09404	 98.8902	 4.34663	 371.926	 3087.04	  459738
 0.09375	0.600432	 2.33651	  42.742	  0.2321	 2.20435	0.212418	 1.42791	 0.57232	 2.10292	  98.889	 4.34814	 371.739	 3087.17	  468049
0.0972222	0.599657	 2.30481	  42.742	0.236042	 2.19912	0.220899	 1.45183	0.587113	 2.11165	 98.8877	 4.34964	 371.552	  3087.3	  475996
0.100694	0.598921	  2.2757	  42.742	  0.2398	 2.19394	0.229643	 1.47529	0.601679	 2.12023	 98.8864	 4.35114	 371.364	 3087.43	  483572
0.104167	0.598222	 2.24904	  42.742	0.243375	 2.18882	0.238631	  1.4983	0.616025	 2.12866	  98.885	 4.35263	 371.177	 3087.55	  490776
0.107639	 0.59756	 2.22474	  42.742	 0.24676	 2.18376	0.247848	 1.52085	0.630148	 2.13694	 98.8836	 4.35412	 370.988	 3087.67	  497599
0.111111	0.596933	 2.20267	  42.742	 0.24996	 2.17874	0.257271	 1.54295	0.644055	 2.14507	 98.8821	 4.35561	   370.8	  3087.8	  504049
0.114583	 0.59634	  2.1827	  42.742	0.252979	 2.17377	0.266874	  1.5646	0.657749	 2.15305	 98.8806	  4.3571	 370.612	 3087.92	  510132
0.118056	 0.59578	 2.16469	  42.742	 0.25582	 2.16885	0.276634	 1.58579	0.671232	 2.16088	 98.8791	 4.35858	 370.423	 3088.04	  515858
0.121528	0.595252	 2.14857	  42.742	0.258489	 2.16398	0.286523	 1.60652	0.684504	 2.16856	 98.8775	 4.36007	 370.234	 3088.15	  521236
   0.125	0.594754	 2.13421	  42.742	0.260992	 2.15915	0.296516	 1.62679	0.697566	  2.1761	 98.8759	 4.36155	 370.046	 3088.27	  526279
0.128472	0.594284	 2.12148	  42.742	0.263339	 2.15436	0.306582	  1.6466	0.710424	  2.1835	 98.8742	 4.36304	 369.857	 3088.38	  531007
0.131944	0.593842	 2.11028	  42.742	0.265538	 2.14962	0.316695	 1.66595	0.723077	 2.19075	 98.8725	 4.36452	 369.668	 3088.49	  535437
0.135417	0.593426	 2.10051	  42.742	0.267598	 2.14493	0.326829	 1.68484	0.735527	 2.19787	 98.8708	   4.366	  369.48	  3088.6	  539587
0.138889	0.593033	 2.09207	  42.742	0.269528	 2.14028	0.336956	 1.70326	0.747777	 2.20485	 98.8691	 4.36748	 369.291	 3088.71	  543475
0.142361	0.592662	 2.08486	  42.742	0.271338	 2.13567	0.347051	 1.72123	0.759826	 2.21169	 98.8673	 4.36897	 369.103	 3088.82	  547120
0.145833	0.592312	 2.07881	  42.742	0.273035	  2.1311	0.357091	 1.73873	0.771676	  2.2184	 98.8655	 4.37045	 368.915	 3088.93	  550538
0.149306	 0.59198	 2.07382	  42.742	 0.27463	 2.12658	0.367053	 1.75577	 0.78333	 2.22499	 98.8637	 4.37193	 368.727	 3089.03	  553749
0.152778	0.591666	  2.0698	  42.742	 0.27613	  2.1221	0.376917	 1.77235	0.794789	 2.23144	 98.8618	 4.37341	 368.539	 3089.14	  556771
 0.15625	0.591367	 2.06669	  42.742	0.277545	 2.11767	0.386663	 1.78848	0.806055	 2.23777	 98.8599	 4.37489	 368.352	 3089.24	  559619
0.159722	0.591083	 2.06441	  42.742	0.278882	 2.11327	0.396275	 1.80415	0.817131	 2.24398	  98.858	 4.37638	 368.165	 3089.35	  562311
0.163194	0.590811	  2.0629	  42.742	0.280148	 2.10893	0.405737	 1.81937	0.828017	 2.25007	 98.8561	 4.37786	 367.978	 3089.45	  564858
0.166667	0.590551	  2.0621	  42.742	0.281349	 2.10462	0.415035	 1.83415	0.838717	 2.25604	 98.8541	 4.37935	 367.791	 3089.55	  567275
0.170139	0.590301	 2.06195	  42.742	0.282491	 2.10036	0.424159	 1.84848	0.849231	 2.26189	 98.8521	 4.38083	 367.605	 3089.65	  569574
0.173611	0.590061	 2.06239	  42.742	 0.28358	 2.09614	0.433097	 1.86237	0.859562	 2.26762	 98.8501	 4.38232	 367.419	 3089.75	  571765
0.177083	0.589828	 2.06339	  42.742	 0.28462	 2.09197	0.441841	 1.87584	0.869712	 2.27325	 98.8481	 4.38381	 367.233	 3089.84	  573859
0.180556	0.589603	 2.06489	  42.742	0.285617	 2.08784	0.450384	 1.88887	0.879683	 2.27876	 98.8461	 4.38529	 367.048	 3089.94	  575863
0.184028	0.589384	 2.06686	  42.742	0.286573	 2.08375	 0.45872	 1.90148	0.889477	 2.28416	  98.844	 4.38678	 366.863	 3090.04	  577787
  0.1875	0.589171	 2.06926	  42.742	0.287493	 2.07971	0.466844	 1.91367	0.899096	 2.28945	  98.842	 4.38827	 366.678	 3090.13	  579637
0.190972	0.588963	 2.07205	  42.742	0.288379	 2.07571	0.474752	 1.92546	0.908541	 2.29463	 98.8399	 4.38976	 366.494	 3090.23	  581420
0.194444	 0.58876	 2.07519	  42.742	0.289234	 2.07175	0.482445	 1.93684	0.917818	 2.29971	 98.8378	 4.39126	  366.31	 3090.32	  583140
0.197917	 0.58856	 2.07867	  42.742	0.290061	 2.06784	0.489918	 1.94783	0.926925	 2.30468	 98.8356	 4.39275	 366.126	 3090.42	  584803
0.201389	0.588363	 2.08245	  42.742	0.290862	 2.06397	0.497176	 1.95844	0.935868	 2.30955	 98.8335	 4.39424	 365.943	 3090.51	  586414
0.204861	0.588169	 2.08652	  42.742	0.291639	 2.06014	0.504213	 1.96866	0.944646	 2.31432	 98.8314	 4.39574	  365.76	  3090.6	  587975
0.208333	0.587978	 2.09084	  42.742	0.292392	 2.05636	0.511035	 1.97851	0.953263	 2.31899	 98.8292	 4.39724	 365.578	  3090.7	  589491
0.211806	0.587788	  2.0954	  42.742	0.293125	 2.05262	0.517642	   1.988	 0.96172	 2.32355	  98.827	 4.39873	 365.396	 3090.79	  590963
0.215278	  0.5876	 2.10018	  42.742	0.293837	 2.04892	0.524036	 1.99713	0.970022	 2.32802	 98.8248	 4.40023	 365.214	 3090.88	  592394
 0.21875	0.587414	 2.10516	  42.742	 0.29453	 2.04526	0.530221	 2.00592	0.978167	 2.33239	 98.8226	 4.40173	 365.033	 3090.97	  593787
0.222222	0.587228	 2.11032	  42.742	0.295204	 2.04165	0.536199	 2.01437	0.986161	 2.33667	 98.8204	 4.40324	 364.852	 3091.06	  595144
0.225694	0.587044	 2.11566	  42.742	0.295862	 2.03807	0.541974	 2.02249	0.994004	 2.34085	 98.8182	 4.40474	 364.671	 3091.15	  596465
0.229167	 0.58686	 2.12116	  42.742	0.296503	 2.03454	 0.54755	 2.03028	  1.0017	 2.34494	 98.8159	 4.40624	 364.491	 3091.24	  597753
0.232639	0.586677	 2.12681	  42.742	0.297127	 2.03105	0.552931	 2.03776	 1.00925	 2.34893	 98.8137	 4.40775	 364.311	 3091.33	  599008
0.236111	0.586494	  2.1326	  42.742	0.297737	  2.0276	0.558119	 2.04493	 1.01665	 2.35284	 98.8114	 4.40925	 364.132	 3091.41	  600232
0.239583	0.586312	 2.13851	  42.742	0.298331	 2.02419	0.563122	 2.05181	 1.02392	 2.35665	 98.8092	 4.41076	 363.953	  3091.5	  601427
0.243056	 0.58613	 2.14454	  42.742	0.298911	 2.02082	0.567943	  2.0584	 1.03104	 2.36038	 98.8069	 4.41227	 363.774	 3091.59	  602592
0.246528	0.585947	 2.15068	  42.742	0.299476	 2.01749	0.572586	  2.0647	 1.03802	 2.36402	 98.8046	 4.41378	 363.596	 3091.67	  603728
    0.25	0.585765	 2.15692	  42.742	0.300028	  2.0142	0.577056	 2.07074	 1.04488	 2.36757	 98.8023	 4.41529	 363.418	 3091.76	  604837
0.253472	0.585582	 2.16326	  42.742	0.300567	 2.01095	0.581358	  2.0765	 1.05159	 2.37104	    98.8	  4.4168	  363.24	 3091.85	  605919
0.256944	0.585399	 2.16969	  42.742	0.301092	 2.00773	0.585495	 2.08201	 1.05818	 2.37443	 98.7977	 4.41832	 363.063	 3091.93	  606974
0.260417	0.585216	 2.17621	  42.742	0.301605	 2.00456	0.589474	 2.08727	 1.06463	 2.37774	 98.7954	 4.41983	 362.886	 3092.02	  608004
0.263889	0.585033	  2.1828	  42.742	0.302105	 2.00142	0.593299	 2.09228	 1.07096	 2.38096	  98.793	 4.42135	 362.709	  3092.1	  609008
0.267361	0.584849	 2.18947	  42.742	0.302593	 1.99832	0.596972	 2.09706	 1.07716	 2.38411	 98.7907	 4.42286	 362.533	 3092.19	  609988
0.270833	0.584664	  2.1962	  42.742	0.303069	 1.99526	0.600501	 2.10161	 1.08324	 2.38717	 98.7883	 4.42438	 362.357	 3092.27	  610943
0.274306	 0.58448	   2.203	  42.742	0.303533	 1.99224	0.603888	 2.10594	  1.0892	 2.39016	  98.786	  4.4259	 362.182	 3092.35	  611876
0.277778	0.584294	 2.20987	  42.742	0.303986	 1.98925	0.607139	 2.11006	 1.09504	 2.39308	 98.7836	 4.42742	 362.006	 3092.44	  612785
 0.28125	0.584108	 2.21679	  42.742	0.304428	  1.9863	0.610257	 2.11396	 1.10076	 2.39592	 98.7813	 4.42894	 361.832	 3092.52	  613671
0.284722	0.583922	 2.22376	  42.742	0.304858	 1.98339	0.613246	 2.11767	 1.10636	 2.39869	 98.7789	 4.43047	 361.657	  3092.6	  614535
0.288194	0.583735	 2.23079	  42.742	0.305278	 1.98051	0.616111	 2.12118	 1.11185	 2.40139	 98.7765	 4.43199	 361.483	 3092.68	  615377
0.291667	0.583547	 2.23787	  42.742	0.305687	 1.97766	0.618855	  2.1245	 1.11722	 2.40401	 98.7742	 4.43351	 361.309	 3092.77	  616198
0.295139	0.583359	 2.24499	  42.742	0.306086	 1.97485	0.621484	 2.12764	 1.12249	 2.40657	 98.7718	 4.43504	 361.136	 3092.85	  616999
0.298611	 0.58317	 2.25215	  42.742	0.306475	 1.97208	   0.624	  2.1306	 1.12765	 2.40906	 98.7694	 4.43657	 360.963	 3092.93	  617779
0.302083	0.582981	 2.25936	  42.742	0.306854	 1.96934	0.626407	  2.1334	  1.1327	 2.41149	  98.767	 4.43809	  360.79	 3093.01	  618540
0.305556	0.582791	 2.26661	  42.742	0.307224	 1.96664	0.628709	 2.13603	 1.13764	 2.41385	 98.7646	 4.43962	 360.617	 3093.09	  619281
0.309028	  0.5826	 2.27389	  42.742	0.307584	 1.96397	0.630909	  2.1385	 1.14248	 2.41614	 98.7622	 4.44115	 360.445	 3093.17	  620003
  0.3125	0.582409	 2.28121	  42.742	0.307934	 1.96133	 0.63301	 2.14082	 1.14722	 2.41838	 98.7598	 4.44268	 360.273	 3093.25	  620707
0.315972	0.582217	 2.28856	  42.742	0.308276	 1.95873	0.635017	 2.14299	 1.15185	 2.42055	 98.7574	 4.44422	 360.102	 3093.33	  621392
0.319444	0.582025	 2.29595	  42.742	0.308609	 1.95615	 0.63693	 2.14501	 1.15639	 2.42266	 98.7549	 4.44575	 359.931	 3093.41	  622060
0.322917	0.581831	 2.30337	  42.742	0.308934	 1.95362	0.638755	  2.1469	 1.16083	 2.42471	 98.7525	 4.44728	  359.76	 3093.49	  622711
0.326389	0.581638	 2.31081	  42.742	 0.30925	 1.95111	0.640494	 2.14865	 1.16518	 2.42671	 98.7501	 4.44882	  359.59	 3093.57	  623345
0.329861	0.581443	 2.31829	  42.742	0.309559	 1.94864	0.642149	 2.15028	 1.16943	 2.42865	 98.7477	 4.45035	 359.419	 3093.65	  623963
0.333333	0.581248	 2.32579	  42.742	0.309859	  1.9462	0.643724	 2.15178	 1.17359	 2.43053	 98.7452	 4.45189	  359.25	 3093.73	  624565
0.336806	0.581053	 2.33332	  42.742	0.310151	 1.94379	 0.64522	 2.15316	 1.17765	 2.43236	 98.7428	 4.45343	  359.08	 3093.81	  625151
0.340278	0.580856	 2.34087	  42.742	0.310436	 1.94141	0.646642	 2.15442	 1.18163	 2.43414	 98.7404	 4.45497	 358.911	 3093.89	  625722
 0.34375	 0.58066	 2.34845	  42.742	0.310714	 1.93906	0.647991	 2.15558	 1.18552	 2.43586	 98.7379	  4.4565	 358.742	 3093.96	  626278
0.347222	0.580462	 2.35604	  42.742	0.310985	 1.93674	 0.64927	 2.15662	 1.18932	 2.43754	 98.7355	 4.45805	 358.573	 3094.04	  626820
0.350694	0.580264	 2.36366	  42.742	0.311249	 1.93446	0.650481	 2.15757	 1.19304	 2.43916	  98.733	 4.45959	 358.405	 3094.12	  627349
0.354167	0.580066	  2.3713	  42.742	0.311506	  1.9322	0.651627	 2.15841	 1.19667	 2.44074	 98.7306	 4.46113	 358.237	  3094.2	  627863
0.357639	0.579866	 2.37896	  42.742	0.311756	 1.92998	0.652708	 2.15916	 1.20022	 2.44226	 98.7281	 4.46267	 358.069	 3094.27	  628365
0.361111	0.579667	 2.38664	  42.742	0.312001	 1.92778	0.653729	 2.15981	 1.20369	 2.44374	 98.7256	 4.46422	 357.902	 3094.35	  628854
0.364583	0.579466	 2.39433	  42.742	0.312239	 1.92561	0.654689	 2.16037	 1.20708	 2.44518	 98.7232	 4.46576	 357.735	 3094.43	  629330
0.368056	0.579266	 2.40204	  42.742	0.312471	 1.92347	0.655593	 2.16085	 1.21039	 2.44657	 98.7207	 4.46731	 357.568	  3094.5	  629794
0.371528	0.579064	 2.40977	  42.742	0.312697	 1.92137	0.656441	 2.16125	 1.21363	 2.44792	 98.7182	 4.46885	 357.402	 3094.58	  630247
   0.375	0.578862	 2.41752	  42.742	0.312917	 1.91929	0.657235	 2.16156	 1.21678	 2.44922	 98.7158	  4.4704	 357.235	 3094.66	  630688
0.378472	 0.57866	 2.42528	  42.742	0.313132	 1.91723	0.657977	  2.1618	 1.21987	 2.45048	 98.7133	 4.47195	  357.07	 3094.73	  631118
0.381944	0.578457	 2.43305	  42.742	0.313342	 1.91521	0.658669	 2.16197	 1.22288	  2.4517	 98.7108	  4.4735	 356.904	 3094.81	  631537
0.385417	0.578254	 2.44084	  42.742	0.313547	 1.91322	0.659312	 2.16206	 1.22582	 2.45289	 98.7083	 4.47505	 356.739	 3094.88	  631946
0.388889	 0.57805	 2.44864	  42.742	0.313746	 1.91125	0.659909	 2.16208	 1.22869	 2.45403	 98.7059	  4.4766	 356.574	 3094.96	  632345
0.392361	0.577846	 2.45645	  42.742	0.313941	 1.90931	 0.66046	 2.16204	 1.23149	 2.45513	 98.7034	 4.47815	 356.409	 3095.04	  632734
0.395833	0.577641	 2.46428	  42.742	0.314131	  1.9074	0.660966	 2.16194	 1.23422	  2.4562	 98.7009	  4.4797	 356.245	 3095.11	  633114
0.399306	0.577436	 2.47212	  42.742	0.314316	 1.90551	 0.66143	 2.16177	 1.23688	 2.45723	 98.6984	 4.48125	 356.081	 3095.19	  633484
0.402778	 0.57723	 2.47997	  42.742	0.314497	 1.90365	0.661853	 2.16155	 1.23948	 2.45823	 98.6959	 4.48281	 355.917	 3095.26	  633845
 0.40625	0.577024	 2.48783	  42.742	0.314674	 1.90182	0.662236	 2.16127	 1.24201	 2.45919	 98.6934	 4.48436	 355.753	 3095.33	  634198
0.409722	0.576817	 2.49569	  42.742	0.314846	 1.90001	 0.66258	 2.16093	 1.24448	 2.46011	 98.6909	 4.48591	  355.59	 3095.41	  634542
0.413194	 0.57661	 2.50357	  42.742	0.315014	 1.89823	0.662887	 2.16055	 1.24688	 2.46101	 98.6884	 4.48747	 355.427	 3095.48	  634879
0.416667	0.576403	 2.51146	  42.742	0.315179	 1.89648	0.663157	 2.16011	 1.24923	 2.46187	 98.6859	 4.48903	 355.265	 3095.56	  635207
0.420139	0.576195	 2.51936	  42.742	 0.31534	 1.89475	0.663392	 2.15962	 1.25151	 2.46269	 98.6834	 4.49058	 355.102	 3095.63	  635527
0.423611	0.575987	 2.52726	  42.742	0.315497	 1.89304	0.663593	 2.15909	 1.25374	 2.46349	 98.6809	 4.49214	  354.94	  3095.7	  635841
0.427083	0.575779	 2.53517	  42.742	 0.31565	 1.89136	0.663761	 2.15852	 1.25591	 2.46426	 98.6784	  4.4937	 354.778	 3095.78	  636147
0.430556	 0.57557	 2.54309	  42.742	  0.3158	 1.88971	0.663897	  2.1579	 1.25802	 2.46499	 98.6759	 4.49526	 354.617	 3095.85	  636446
0.434028	 0.57536	 2.55102	  42.742	0.315947	 1.88808	0.664003	 2.15724	 1.26007	  2.4657	 98.6734	 4.49682	 354.456	 3095.93	  636738
  0.4375	0.575151	 2.55896	  42.742	 0.31609	 1.88647	0.664078	 2.15654	 1.26207	 2.46638	 98.6709	 4.49838	 354.295	    3096	  637024
0.440972	0.574941	  2.5669	  42.742	 0.31623	 1.88489	0.664124	  2.1558	 1.26401	 2.46703	 98.6684	 4.49994	 354.134	 3096.07	  637304
0.444444	 0.57473	 2.57484	  42.742	0.316368	 1.88334	0.664142	 2.15503	  1.2659	 2.46766	 98.6659	  4.5015	 353.974	 3096.14	  637577
0.447917	 0.57452	 2.58279	  42.742	0.316502	  1.8818	0.664132	 2.15422	 1.26774	 2.46826	 98.6634	 4.50306	 353.814	 3096.22	  637845
0.451389	0.574309	 2.59075	  42.742	0.316633	 1.88029	0.664096	 2.15338	 1.26953	 2.46883	 98.6609	 4.50463	 353.654	 3096.29	  638106
0.454861	0.574097	 2.59871	  42.742	0.316762	 1.87881	0.664035	 2.15251	 1.27127	 2.46937	 98.6584	 4.50619	 353.494	 3096.36	  638363
0.458333	0.573886	 2.60668	  42.742	0.316888	 1.87734	0.663948	  2.1516	 1.27296	  2.4699	 98.6559	 4.50776	 353.335	 3096.43	  638614
0.461806	0.573674	 2.61465	  42.742	0.317012	  1.8759	0.663837	 2.15067	  1.2746	 2.47039	 98.6533	 4.50932	 353.176	  3096.5	  638859
0.465278	0.573461	 2.62263	  42.742	0.317133	 1.87448	0.663702	 2.14971	 1.27619	 2.47087	 98.6508	 4.51089	 353.017	 3096.58	  639100
 0.46875	0.573249	 2.63061	  42.742	0.317251	 1.87309	0.663545	 2.14872	 1.27773	 2.47132	 98.6483	 4.51245	 352.859	 3096.65	  639336
0.472222	0.573036	 2.63859	  42.742	0.317367	 1.87171	0.663366	  2.1477	 1.27923	 2.47175	 98.6458	 4.51402	 352.701	 3096.72	  639567
0.475694	0.572823	 2.64658	  42.742	0.317481	 1.87036	0.663166	 2.14666	 1.28069	 2.47215	 98.6433	 4.51559	 352.543	 3096.79	  639793
0.479167	0.572609	 2.65457	  42.742	0.317593	 1.86903	0.662944	  2.1456	  1.2821	 2.47254	 98.6408	 4.51715	 352.385	 3096.86	  640016
0.482639	0.572396	 2.66256	  42.742	0.317703	 1.86772	0.662702	 2.14451	 1.28346	  2.4729	 98.6382	 4.51872	 352.228	 3096.93	  640233
0.486111	0.572182	 2.67056	  42.742	 0.31781	 1.86643	0.662441	  2.1434	 1.28479	 2.47324	 98.6357	 4.52029	 352.071	    3097	  640447
0.489583	0.571968	 2.67855	  42.742	0.317916	 1.86516	 0.66216	 2.14228	 1.28607	 2.47357	 98.6332	 4.52186	 351.914	 3097.08	  640657
0.493056	0.571753	 2.68655	  42.742	 0.31802	 1.86392	0.661861	 2.14113	 1.28731	 2.47387	 98.6307	 4.52343	 351.758	 3097.15	  640863
0.496528	0.571539	 2.69455	  42.742	0.318121	 1.86269	0.661544	 2.13996	 1.28851	 2.47415	 98.6282	   4.525	 351.602	 3097.22	  641065
     0.5	0.571324	 2.70256	  42.742	0.318221	 1.86149	 0.66121	 2.13877	 1.28967	 2.47442	 98.6256	 4.52658	 351.446	 3097.29	  641263
