#.t	.Aer_Anox_ZP.C(S_A)	.Aer_Anox_ZP.C(S_F)	.Aer_Anox_ZP.C(S_I)	.Aer_Anox_ZP.C(S_N2O)	.Aer_Anox_ZP.C(S_NH)	.Aer_Anox_ZP.C(S_NO)	.Aer_Anox_ZP.C(S_NO2)	.Aer_Anox_ZP.C(S_NO3)	.Aer_Anox_ZP.C(S_O)	.Aer_Anox_ZP.C(X_BA1)	.Aer_Anox_ZP.C(X_BA2)	.Aer_Anox_ZP.C(X_H)	.Aer_Anox_ZP.C(X_TSS)	.Aer_Anox_ZP.FluxN2O_gas
#d	g/m3	g/m3	g/m3	g/m3	g/m3	g/m3	g/m3	g/m3	g/m3	g/m3	g/m3	g/m3	g/m3	g/d
       0	0.449869	 4.21568	  42.742	0.0460128	  2.3963	0.0565285	0.492947	0.0173533	 1.80465	 98.8969	 4.30192	 376.727	 3082.91	 92803.7
0.00347222	0.505474	 4.12922	  42.742	0.0797732	 2.39322	0.071655	0.517098	0.048027	 1.87985	 98.8963	   4.304	 376.533	 3082.99	  160893
0.00694444	0.549795	 4.09044	  42.742	0.0912046	  2.3811	0.0789261	0.590728	0.0776111	 1.88053	 98.8975	 4.30606	 376.323	  3083.1	  183947
0.0104167	0.579059	 4.01113	  42.742	0.101868	 2.36766	0.0840572	0.646651	  0.1068	 1.87972	 98.8988	 4.30818	 376.128	 3083.26	  205453
0.0138889	0.597644	 3.92226	  42.742	0.110427	 2.35539	0.0881932	0.697272	0.134271	 1.88169	 98.8999	 4.31021	  375.94	 3083.44	  222712
0.0173611	 0.60917	  3.8297	  42.742	0.117647	 2.34476	0.092062	0.743938	0.160347	 1.88705	 98.9007	 4.31218	 375.754	 3083.62	  237273
0.0208333	0.615956	 3.73465	  42.742	0.124117	 2.33512	0.0958744	0.787099	0.185241	 1.89456	 98.9012	 4.31408	 375.571	 3083.81	  250322
0.0243056	0.619561	 3.63913	  42.742	0.130192	 2.32621	0.099721	 0.82758	0.209081	 1.90336	 98.9016	 4.31594	  375.39	 3083.99	  262572
0.0277778	0.621096	  3.5444	  42.742	0.136062	 2.31785	 0.10364	0.865941	0.232001	 1.91292	 98.9019	 4.31775	 375.209	 3084.18	  274408
 0.03125	0.621294	 3.45134	  42.742	 0.14182	 2.30989	0.107657	0.902566	0.254104	  1.9229	  98.902	 4.31952	  375.03	 3084.36	  286021
0.0347222	0.620659	 3.36061	  42.742	0.147516	 2.30225	 0.11179	0.937752	0.275477	 1.93312	  98.902	 4.32126	  374.85	 3084.55	  297507
0.0381944	0.619528	 3.27267	  42.742	0.153172	 2.29487	 0.11606	0.971724	0.296195	 1.94345	 98.9019	 4.32297	 374.671	 3084.73	  308912
0.0416667	0.618126	 3.18787	  42.742	0.158798	 2.28771	0.120487	 1.00465	 0.31632	 1.95383	 98.9018	 4.32465	 374.492	  3084.9	  320258
0.0451389	  0.6166	 3.10648	  42.742	0.164397	 2.28073	0.125092	 1.03666	0.335903	 1.96421	 98.9015	 4.32631	 374.312	 3085.08	  331548
0.0486111	0.615043	  3.0286	  42.742	0.169966	 2.27391	 0.12989	 1.06787	0.354999	 1.97455	 98.9012	 4.32794	 374.132	 3085.24	  342777
0.0520833	0.613511	 2.95431	  42.742	0.175499	 2.26724	0.134901	 1.09835	0.373647	 1.98483	 98.9007	 4.32956	 373.952	 3085.41	  353934
0.0555556	0.612036	 2.88371	  42.742	0.180987	 2.26069	0.140144	 1.12817	0.391876	 1.99504	 98.9002	 4.33116	  373.77	 3085.57	  365000
0.0590278	0.610634	 2.81678	  42.742	0.186419	 2.25427	0.145634	 1.15737	0.409722	 2.00515	 98.8997	 4.33274	 373.589	 3085.73	  375953
  0.0625	0.609308	 2.75346	  42.742	0.191784	 2.24795	0.151383	 1.18601	0.427213	 2.01517	  98.899	 4.33431	 373.407	 3085.89	  386771
0.0659722	0.608059	 2.69376	  42.742	0.197067	 2.24174	 0.15741	 1.21409	0.444367	 2.02508	 98.8983	 4.33587	 373.224	 3086.04	  397424
0.0694444	0.606883	  2.6376	  42.742	0.202255	 2.23562	0.163725	 1.24166	0.461206	 2.03488	 98.8975	 4.33742	  373.04	 3086.19	  407884
0.0729167	0.605774	 2.58485	  42.742	0.207335	 2.22959	0.170333	 1.26873	 0.47775	 2.04455	 98.8967	 4.33896	 372.856	 3086.34	  418126
0.0763889	0.604728	 2.53553	  42.742	0.212289	 2.22364	 0.17725	 1.29531	0.494005	 2.05409	 98.8958	 4.34049	 372.672	 3086.48	  428114
0.0798611	0.603738	 2.48943	  42.742	0.217109	 2.21778	0.184472	 1.32142	0.509994	 2.06351	 98.8948	 4.34201	 372.486	 3086.63	  437830
0.0833333	  0.6028	 2.44655	  42.742	0.221776	 2.21198	0.192008	 1.34706	0.525718	 2.07278	 98.8938	 4.34353	 372.301	 3086.77	  447239
0.0868055	 0.60191	 2.40669	  42.742	0.226284	 2.20626	0.199848	 1.37225	0.541194	 2.08192	 98.8927	 4.34504	 372.115	  3086.9	  456328
0.0902778	0.601067	 2.36982	  42.742	0.230618	 2.20061	0.207998	 1.39697	0.556423	 2.09091	 98.8916	 4.34654	 371.928	 3087.04	  465065
 0.09375	0.600265	 2.33574	  42.742	0.234776	 2.19502	0.216438	 1.42124	0.571418	 2.09976	 98.8904	 4.34804	 371.741	 3087.17	  473446
0.0972222	0.599504	 2.30441	  42.742	0.238746	 2.18949	0.225167	 1.44506	0.586179	 2.10846	 98.8891	 4.34954	 371.553	  3087.3	  481448
0.100694	0.598783	 2.27565	  42.742	0.242526	 2.18402	0.234163	 1.46843	0.600713	 2.11701	 98.8878	 4.35103	 371.366	 3087.43	  489069
0.104167	0.598098	 2.24934	  42.742	0.246117	  2.1786	0.243407	 1.49136	0.615027	 2.12541	 98.8865	 4.35252	 371.178	 3087.55	  496306
0.107639	0.597451	 2.22542	  42.742	0.249513	 2.17324	0.252886	 1.51383	0.629116	 2.13366	 98.8851	 4.35401	  370.99	 3087.68	  503150
0.111111	0.596839	 2.20371	  42.742	0.252719	 2.16793	 0.26257	 1.53585	0.642991	 2.14177	 98.8837	  4.3555	 370.801	  3087.8	  509612
0.114583	0.596261	 2.18408	  42.742	 0.25574	 2.16267	0.272434	 1.55741	0.656652	 2.14972	 98.8823	 4.35698	 370.613	 3087.92	  515700
0.118056	0.595715	 2.16642	  42.742	0.258581	 2.15746	0.282452	 1.57853	0.670102	 2.15753	 98.8808	 4.35847	 370.424	 3088.04	  521424
0.121528	0.595201	 2.15064	  42.742	0.261244	  2.1523	0.292598	 1.59918	 0.68334	  2.1652	 98.8792	 4.35995	 370.235	 3088.15	  526791
   0.125	0.594717	  2.1366	  42.742	0.263741	 2.14718	0.302841	 1.61937	0.696369	 2.17272	 98.8777	 4.36143	 370.046	 3088.27	  531822
0.128472	 0.59426	 2.12418	  42.742	 0.26608	 2.14211	0.313152	 1.63911	0.709194	  2.1801	 98.8761	 4.36291	 369.858	 3088.38	  536535
0.131944	 0.59383	 2.11328	  42.742	 0.26827	 2.13709	0.323502	 1.65839	0.721814	 2.18734	 98.8744	 4.36439	 369.669	 3088.49	  540947
0.135417	0.593425	 2.10379	  42.742	0.270321	 2.13212	0.333864	  1.6772	0.734232	 2.19445	 98.8727	 4.36587	 369.481	  3088.6	  545078
0.138889	0.593043	 2.09561	  42.742	0.272242	 2.12718	0.344211	 1.69556	0.746448	 2.20142	  98.871	 4.36735	 369.292	 3088.71	  548948
0.142361	0.592682	 2.08866	  42.742	0.274042	  2.1223	0.354516	 1.71344	0.758464	 2.20826	 98.8693	 4.36883	 369.104	 3088.82	  552572
0.145833	0.592342	 2.08285	  42.742	0.275731	 2.11746	0.364755	 1.73086	0.770282	 2.21497	 98.8675	 4.37031	 368.916	 3088.93	  555973
0.149306	0.592019	 2.07807	  42.742	0.277318	 2.11267	0.374906	 1.74782	0.781903	 2.22155	 98.8657	 4.37178	 368.728	 3089.04	  559169
0.152778	0.591712	 2.07426	  42.742	0.278812	 2.10792	0.384947	 1.76432	0.793331	 2.22801	 98.8639	 4.37326	  368.54	 3089.14	  562177
 0.15625	0.591421	 2.07134	  42.742	0.280221	 2.10322	0.394861	 1.78036	0.804567	 2.23435	 98.8621	 4.37474	 368.353	 3089.24	  565015
0.159722	0.591143	 2.06923	  42.742	0.281554	 2.09856	0.404629	 1.79595	0.815613	 2.24056	 98.8602	 4.37623	 368.165	 3089.35	  567697
0.163194	0.590878	 2.06788	  42.742	0.282816	 2.09395	0.414237	 1.81108	0.826469	 2.24666	 98.8583	 4.37771	 367.978	 3089.45	  570238
0.166667	0.590623	 2.06723	  42.742	0.284015	 2.08938	0.423672	 1.82576	 0.83714	 2.25264	 98.8564	 4.37919	 367.792	 3089.55	  572651
0.170139	0.590378	 2.06721	  42.742	0.285157	 2.08486	0.432921	    1.84	0.847626	 2.25851	 98.8545	 4.38067	 367.606	 3089.65	  574948
0.173611	0.590142	 2.06778	  42.742	0.286246	 2.08039	0.441975	  1.8538	 0.85793	 2.26426	 98.8525	 4.38216	  367.42	 3089.75	  577141
0.177083	0.589914	 2.06888	  42.742	0.287288	 2.07596	0.450826	 1.86716	0.868053	  2.2699	 98.8505	 4.38364	 367.234	 3089.85	  579237
0.180556	0.589693	 2.07049	  42.742	0.288286	 2.07158	0.459465	 1.88008	0.877997	 2.27543	 98.8485	 4.38513	 367.049	 3089.95	  581246
0.184028	0.589478	 2.07255	  42.742	0.289246	 2.06725	0.467889	 1.89258	0.887765	 2.28085	 98.8465	 4.38661	 366.864	 3090.04	  583176
  0.1875	0.589268	 2.07502	  42.742	 0.29017	 2.06296	0.476094	 1.90467	 0.89736	 2.28616	 98.8445	  4.3881	 366.679	 3090.14	  585034
0.190972	0.589063	 2.07788	  42.742	0.291061	 2.05872	0.484076	 1.91634	0.906782	 2.29137	 98.8424	 4.38959	 366.495	 3090.23	  586826
0.194444	0.588862	 2.08109	  42.742	0.291922	 2.05452	0.491835	 1.92761	0.916037	 2.29647	 98.8404	 4.39108	 366.311	 3090.33	  588558
0.197917	0.588664	 2.08463	  42.742	0.292754	 2.05037	0.499368	 1.93848	0.925122	 2.30147	 98.8383	 4.39257	 366.127	 3090.42	  590233
0.201389	 0.58847	 2.08846	  42.742	0.293562	 2.04627	0.506678	 1.94897	0.934044	 2.30637	 98.8362	 4.39406	 365.944	 3090.52	  591856
0.204861	0.588278	 2.09257	  42.742	0.294345	 2.04221	0.513764	 1.95907	0.942803	 2.31116	  98.834	 4.39556	 365.761	 3090.61	  593431
0.208333	0.588088	 2.09693	  42.742	0.295105	  2.0382	0.520628	  1.9688	0.951401	 2.31586	 98.8319	 4.39705	 365.579	  3090.7	  594960
0.211806	0.587901	 2.10152	  42.742	0.295845	 2.03423	0.527272	 1.97817	0.959841	 2.32045	 98.8298	 4.39855	 365.397	 3090.79	  596446
0.215278	0.587714	 2.10632	  42.742	0.296564	  2.0303	0.533699	 1.98717	0.968126	 2.32495	 98.8276	 4.40004	 365.215	 3090.88	  597892
 0.21875	 0.58753	 2.11133	  42.742	0.297264	 2.02642	0.539911	 1.99583	0.976255	 2.32936	 98.8254	 4.40154	 365.034	 3090.97	  599300
0.222222	0.587346	 2.11652	  42.742	0.297946	 2.02259	0.545914	 2.00415	0.984234	 2.33366	 98.8233	 4.40304	 364.853	 3091.06	  600671
0.225694	0.587163	 2.12188	  42.742	0.298611	  2.0188	0.551708	 2.01213	0.992063	 2.33787	 98.8211	 4.40454	 364.673	 3091.15	  602006
0.229167	0.586981	 2.12739	  42.742	0.299259	 2.01505	0.557301	  2.0198	0.999745	 2.34199	 98.8189	 4.40605	 364.492	 3091.24	  603309
0.232639	0.586799	 2.13305	  42.742	0.299891	 2.01134	0.562697	 2.02714	 1.00728	 2.34602	 98.8166	 4.40755	 364.313	 3091.33	  604578
0.236111	0.586617	 2.13885	  42.742	0.300507	 2.00768	0.567898	 2.03418	 1.01468	 2.34996	 98.8144	 4.40905	 364.133	 3091.42	  605816
0.239583	0.586436	 2.14477	  42.742	0.301108	 2.00406	0.572908	 2.04092	 1.02193	 2.35381	 98.8122	 4.41056	 363.954	 3091.51	  607024
0.243056	0.586255	 2.15081	  42.742	0.301694	 2.00048	0.577736	 2.04738	 1.02904	 2.35757	 98.8099	 4.41207	 363.775	 3091.59	  608202
0.246528	0.586074	 2.15696	  42.742	0.302266	 1.99695	0.582382	 2.05354	 1.03602	 2.36124	 98.8077	 4.41357	 363.597	 3091.68	  609351
    0.25	0.585893	 2.16322	  42.742	0.302824	 1.99346	0.586854	 2.05944	 1.04286	 2.36483	 98.8054	 4.41508	 363.419	 3091.77	  610472
0.253472	0.585712	 2.16956	  42.742	0.303368	    1.99	0.591157	 2.06507	 1.04957	 2.36834	 98.8031	 4.41659	 363.242	 3091.85	  611565
0.256944	 0.58553	   2.176	  42.742	0.303899	 1.98659	0.595293	 2.07044	 1.05615	 2.37176	 98.8008	 4.41811	 363.064	 3091.94	  612631
0.260417	0.585348	 2.18252	  42.742	0.304417	 1.98322	 0.59927	 2.07556	  1.0626	  2.3751	 98.7986	 4.41962	 362.887	 3092.02	  613672
0.263889	0.585166	 2.18912	  42.742	0.304922	 1.97989	0.603091	 2.08043	 1.06892	 2.37835	 98.7963	 4.42113	 362.711	 3092.11	  614686
0.267361	0.584983	  2.1958	  42.742	0.305415	  1.9766	0.606759	 2.08507	 1.07512	 2.38153	 98.7939	 4.42265	 362.535	 3092.19	  615675
0.270833	  0.5848	 2.20254	  42.742	0.305895	 1.97335	0.610281	 2.08949	 1.08119	 2.38464	 98.7916	 4.42417	 362.359	 3092.28	  616639
0.274306	0.584617	 2.20935	  42.742	0.306364	 1.97014	0.613664	 2.09368	 1.08715	 2.38766	 98.7893	 4.42568	 362.183	 3092.36	  617580
0.277778	0.584433	 2.21622	  42.742	 0.30682	 1.96697	0.616906	 2.09765	 1.09298	 2.39061	  98.787	  4.4272	 362.008	 3092.44	  618497
 0.28125	0.584248	 2.22315	  42.742	0.307265	 1.96384	0.620015	 2.10142	  1.0987	 2.39349	 98.7847	 4.42872	 361.833	 3092.53	  619390
0.284722	0.584063	 2.23013	  42.742	0.307699	 1.96074	0.622996	 2.10499	  1.1043	 2.39629	 98.7823	 4.43025	 361.659	 3092.61	  620261
0.288194	0.583878	 2.23717	  42.742	0.308122	 1.95768	0.625852	 2.10837	 1.10979	 2.39902	   98.78	 4.43177	 361.485	 3092.69	  621109
0.291667	0.583691	 2.24426	  42.742	0.308534	 1.95466	0.628586	 2.11155	 1.11516	 2.40169	 98.7776	 4.43329	 361.311	 3092.77	  621936
0.295139	0.583505	  2.2514	  42.742	0.308935	 1.95168	0.631203	 2.11456	 1.12043	 2.40428	 98.7753	 4.43482	 361.138	 3092.86	  622741
0.298611	0.583317	 2.25857	  42.742	0.309326	 1.94873	0.633709	 2.11739	 1.12559	  2.4068	 98.7729	 4.43634	 360.965	 3092.94	  623526
0.302083	0.583129	  2.2658	  42.742	0.309707	 1.94583	0.636104	 2.12005	 1.13064	 2.40926	 98.7705	 4.43787	 360.792	 3093.02	  624291
0.305556	0.582941	 2.27306	  42.742	0.310079	 1.94295	0.638394	 2.12254	 1.13558	 2.41166	 98.7681	  4.4394	 360.619	  3093.1	  625035
0.309028	0.582752	 2.28036	  42.742	 0.31044	 1.94012	0.640583	 2.12488	 1.14042	 2.41399	 98.7658	 4.44093	 360.447	 3093.18	  625760
  0.3125	0.582562	  2.2877	  42.742	0.310792	 1.93731	0.642672	 2.12706	 1.14516	 2.41625	 98.7634	 4.44246	 360.276	 3093.26	  626467
0.315972	0.582371	 2.29507	  42.742	0.311135	 1.93455	0.644666	  2.1291	  1.1498	 2.41846	  98.761	 4.44399	 360.104	 3093.34	  627154
0.319444	 0.58218	 2.30248	  42.742	0.311469	 1.93182	0.646568	   2.131	 1.15435	 2.42061	 98.7586	 4.44552	 359.933	 3093.42	  627824
0.322917	0.581989	 2.30992	  42.742	0.311795	 1.92912	 0.64838	 2.13276	 1.15879	 2.42269	 98.7562	 4.44705	 359.762	  3093.5	  628476
0.326389	0.581796	 2.31738	  42.742	0.312111	 1.92646	0.650106	 2.13438	 1.16314	 2.42472	 98.7538	 4.44859	 359.592	 3093.58	  629111
0.329861	0.581603	 2.32488	  42.742	 0.31242	 1.92383	0.651749	 2.13588	 1.16739	  2.4267	 98.7514	 4.45012	 359.422	 3093.66	  629729
0.333333	 0.58141	 2.33241	  42.742	 0.31272	 1.92124	0.653312	 2.13725	 1.17156	 2.42861	  98.749	 4.45166	 359.252	 3093.74	  630331
0.336806	0.581216	 2.33996	  42.742	0.313013	 1.91868	0.654796	 2.13851	 1.17563	 2.43048	 98.7466	 4.45319	 359.082	 3093.82	  630917
0.340278	0.581021	 2.34754	  42.742	0.313297	 1.91615	0.656205	 2.13965	 1.17961	 2.43229	 98.7442	 4.45473	 358.913	  3093.9	  631487
 0.34375	0.580826	 2.35514	  42.742	0.313575	 1.91366	0.657542	 2.14068	 1.18351	 2.43404	 98.7417	 4.45627	 358.744	 3093.97	  632043
0.347222	 0.58063	 2.36277	  42.742	0.313845	 1.91119	0.658809	  2.1416	 1.18731	 2.43575	 98.7393	 4.45781	 358.575	 3094.05	  632584
0.350694	0.580433	 2.37041	  42.742	0.314108	 1.90876	0.660007	 2.14243	 1.19104	 2.43741	 98.7369	 4.45935	 358.407	 3094.13	  633111
0.354167	0.580236	 2.37808	  42.742	0.314364	 1.90637	0.661141	 2.14315	 1.19468	 2.43902	 98.7345	 4.46089	 358.239	 3094.21	  633623
0.357639	0.580039	 2.38577	  42.742	0.314614	   1.904	0.662211	 2.14378	 1.19823	 2.44058	  98.732	 4.46244	 358.072	 3094.28	  634123
0.361111	0.579841	 2.39348	  42.742	0.314857	 1.90167	0.663219	 2.14431	 1.20171	 2.44209	 98.7296	 4.46398	 357.904	 3094.36	  634609
0.364583	0.579642	 2.40121	  42.742	0.315093	 1.89937	0.664169	 2.14476	 1.20511	 2.44356	 98.7271	 4.46552	 357.737	 3094.44	  635083
0.368056	0.579443	 2.40896	  42.742	0.315324	 1.89709	 0.66506	 2.14513	 1.20843	 2.44498	 98.7247	 4.46707	  357.57	 3094.52	  635544
0.371528	0.579243	 2.41673	  42.742	0.315548	 1.89485	0.665897	 2.14541	 1.21167	 2.44636	 98.7222	 4.46861	 357.404	 3094.59	  635994
   0.375	0.579043	 2.42451	  42.742	0.315767	 1.89264	0.666679	 2.14561	 1.21483	 2.44769	 98.7198	 4.47016	 357.238	 3094.67	  636431
0.378472	0.578842	  2.4323	  42.742	0.315981	 1.89046	 0.66741	 2.14574	 1.21793	 2.44899	 98.7173	 4.47171	 357.072	 3094.74	  636858
0.381944	0.578641	 2.44012	  42.742	0.316188	 1.88831	0.668091	 2.14579	 1.22095	 2.45024	 98.7149	 4.47326	 356.906	 3094.82	  637273
0.385417	0.578439	 2.44794	  42.742	0.316391	 1.88619	0.668724	 2.14578	 1.22389	 2.45145	 98.7124	 4.47481	 356.741	  3094.9	  637678
0.388889	0.578237	 2.45578	  42.742	0.316589	  1.8841	0.669309	  2.1457	 1.22677	 2.45263	   98.71	 4.47636	 356.576	 3094.97	  638073
0.392361	0.578034	 2.46364	  42.742	0.316781	 1.88204	0.669849	 2.14555	 1.22958	 2.45376	 98.7075	 4.47791	 356.412	 3095.05	  638458
0.395833	0.577831	 2.47151	  42.742	0.316969	 1.88001	0.670345	 2.14534	 1.23232	 2.45486	  98.705	 4.47946	 356.247	 3095.12	  638832
0.399306	0.577627	 2.47939	  42.742	0.317152	   1.878	0.670799	 2.14507	 1.23499	 2.45592	 98.7026	 4.48101	 356.083	  3095.2	  639198
0.402778	0.577423	 2.48728	  42.742	 0.31733	 1.87603	0.671212	 2.14474	 1.23759	 2.45694	 98.7001	 4.48257	 355.919	 3095.27	  639555
 0.40625	0.577219	 2.49518	  42.742	0.317504	 1.87408	0.671584	 2.14436	 1.24014	 2.45793	 98.6976	 4.48412	 355.756	 3095.35	  639902
0.409722	0.577014	 2.50309	  42.742	0.317674	 1.87216	0.671919	 2.14393	 1.24261	 2.45889	 98.6952	 4.48567	 355.593	 3095.42	  640241
0.413194	0.576808	 2.51102	  42.742	 0.31784	 1.87026	0.672216	 2.14344	 1.24503	 2.45981	 98.6927	 4.48723	  355.43	  3095.5	  640572
0.416667	0.576602	 2.51895	  42.742	0.318002	  1.8684	0.672477	 2.14291	 1.24738	  2.4607	 98.6902	 4.48879	 355.267	 3095.57	  640895
0.420139	0.576396	 2.52689	  42.742	 0.31816	 1.86656	0.672702	 2.14233	 1.24968	 2.46156	 98.6877	 4.49034	 355.105	 3095.64	  641210
0.423611	 0.57619	 2.53485	  42.742	0.318314	 1.86475	0.672894	  2.1417	 1.25191	 2.46238	 98.6852	  4.4919	 354.943	 3095.72	  641518
0.427083	0.575983	 2.54281	  42.742	0.318465	 1.86296	0.673053	 2.14103	 1.25409	 2.46318	 98.6828	 4.49346	 354.781	 3095.79	  641818
0.430556	0.575775	 2.55078	  42.742	0.318612	  1.8612	 0.67318	 2.14032	 1.25621	 2.46394	 98.6803	 4.49502	 354.619	 3095.86	  642111
0.434028	0.575568	 2.55875	  42.742	0.318756	 1.85947	0.673277	 2.13957	 1.25827	 2.46468	 98.6778	 4.49658	 354.458	 3095.94	  642398
  0.4375	0.575359	 2.56674	  42.742	0.318896	 1.85776	0.673343	 2.13879	 1.26028	 2.46538	 98.6753	 4.49814	 354.297	 3096.01	  642678
0.440972	0.575151	 2.57473	  42.742	0.319033	 1.85608	0.673381	 2.13796	 1.26224	 2.46606	 98.6728	  4.4997	 354.137	 3096.08	  642951
0.444444	0.574942	 2.58272	  42.742	0.319168	 1.85443	 0.67339	  2.1371	 1.26414	 2.46671	 98.6703	 4.50126	 353.976	 3096.16	  643218
0.447917	0.574733	 2.59073	  42.742	0.319299	  1.8528	0.673373	 2.13621	 1.26598	 2.46734	 98.6678	 4.50283	 353.816	 3096.23	  643480
0.451389	0.574524	 2.59874	  42.742	0.319427	 1.85119	0.673329	 2.13528	 1.26778	 2.46794	 98.6653	 4.50439	 353.656	  3096.3	  643735
0.454861	0.574314	 2.60675	  42.742	0.319553	 1.84961	0.673259	 2.13433	 1.26953	 2.46851	 98.6628	 4.50595	 353.497	 3096.37	  643985
0.458333	0.574104	 2.61477	  42.742	0.319676	 1.84805	0.673165	 2.13334	 1.27123	 2.46906	 98.6603	 4.50752	 353.338	 3096.45	  644230
0.461806	0.573893	 2.62279	  42.742	0.319796	 1.84652	0.673047	 2.13233	 1.27288	 2.46958	 98.6578	 4.50908	 353.179	 3096.52	  644469
0.465278	0.573682	 2.63082	  42.742	0.319914	 1.84501	0.672905	 2.13129	 1.27448	 2.47008	 98.6553	 4.51065	  353.02	 3096.59	  644703
 0.46875	0.573471	 2.63886	  42.742	0.320029	 1.84353	 0.67274	 2.13022	 1.27603	 2.47056	 98.6528	 4.51222	 352.862	 3096.66	  644932
0.472222	 0.57326	 2.64689	  42.742	0.320142	 1.84206	0.672554	 2.12913	 1.27754	 2.47101	 98.6503	 4.51378	 352.704	 3096.73	  645156
0.475694	0.573049	 2.65494	  42.742	0.320252	 1.84062	0.672347	 2.12801	 1.27901	 2.47144	 98.6478	 4.51535	 352.546	 3096.81	  645376
0.479167	0.572837	 2.66298	  42.742	0.320361	 1.83921	0.672118	 2.12687	 1.28043	 2.47185	 98.6453	 4.51692	 352.388	 3096.88	  645592
0.482639	0.572624	 2.67103	  42.742	0.320467	 1.83782	 0.67187	 2.12571	  1.2818	 2.47224	 98.6428	 4.51849	 352.231	 3096.95	  645803
0.486111	0.572412	 2.67908	  42.742	0.320571	 1.83645	0.671602	 2.12453	 1.28314	  2.4726	 98.6403	 4.52006	 352.074	 3097.02	  646010
0.489583	0.572199	 2.68713	  42.742	0.320674	  1.8351	0.671315	 2.12333	 1.28443	 2.47295	 98.6378	 4.52163	 351.917	 3097.09	  646213
0.493056	0.571986	 2.69519	  42.742	0.320774	 1.83377	 0.67101	 2.12212	 1.28568	 2.47328	 98.6353	  4.5232	 351.761	 3097.16	  646412
0.496528	0.571773	 2.70325	  42.742	0.320872	 1.83247	0.670687	 2.12088	 1.28689	 2.47358	 98.6328	 4.52477	 351.604	 3097.23	  646607
     0.5	 0.57156	 2.71131	  42.742	0.320969	 1.83118	0.670347	 2.11963	 1.28806	 2.47387	 98.6303	 4.52634	 351.448	  3097.3	  646798
